#WAVENUMBER	 TRANSMITTANCE
#cm^(-1)	 %
#DECIMALSYMBOL	 .
299.9089	 127.0863
300.3910	 88.7124
300.8732	 75.9329
301.3554	 122.1498
301.8375	 150.0000
302.3197	 150.0000
302.8019	 144.7564
303.2840	 -1.0000
303.7662	 -1.0000
304.2484	 -1.0000
304.7305	 4.8039
305.2127	 56.3959
305.6949	 75.9285
306.1770	 -1.0000
306.6592	 150.0000
307.1414	 150.0000
307.6236	 142.5997
308.1057	 36.2283
308.5879	 13.8091
309.0701	 -1.0000
309.5522	 -1.0000
310.0344	 38.7071
310.5166	 89.7337
310.9987	 41.0291
311.4809	 39.8872
311.9631	 77.7528
312.4452	 76.8070
312.9274	 90.1178
313.4096	 150.0000
313.8917	 150.0000
314.3739	 150.0000
314.8561	 55.9911
315.3383	 106.5583
315.8204	 108.3293
316.3026	 -1.0000
316.7848	 3.8915
317.2669	 129.4441
317.7491	 150.0000
318.2313	 150.0000
318.7134	 137.0377
319.1956	 27.9593
319.6778	 -1.0000
320.1599	 -1.0000
320.6421	 70.3568
321.1243	 150.0000
321.6064	 150.0000
322.0886	 -1.0000
322.5708	 150.0000
323.0529	 150.0000
323.5351	 150.0000
324.0173	 119.7045
324.4995	 150.0000
324.9816	 -1.0000
325.4638	 53.9230
325.9460	 -1.0000
326.4281	 18.6007
326.9103	 66.3202
327.3925	 -0.8399
327.8746	 16.1263
328.3568	 101.7214
328.8390	 137.8593
329.3211	 89.1460
329.8033	 150.0000
330.2855	 150.0000
330.7676	 29.6654
331.2498	 57.5488
331.7320	 72.7260
332.2142	 53.3063
332.6963	 38.2667
333.1785	 65.6451
333.6607	 101.0591
334.1428	 87.8414
334.6250	 17.5322
335.1072	 -1.0000
335.5893	 -1.0000
336.0715	 -1.0000
336.5537	 -1.0000
337.0358	 -1.0000
337.5180	 101.9771
338.0002	 149.5917
338.4823	 13.2861
338.9645	 -1.0000
339.4467	 93.5683
339.9288	 85.2227
340.4110	 68.1647
340.8932	 105.0607
341.3754	 150.0000
341.8575	 64.9369
342.3397	 -1.0000
342.8219	 150.0000
343.3040	 78.0519
343.7862	 -1.0000
344.2684	 -1.0000
344.7505	 150.0000
345.2327	 150.0000
345.7149	 150.0000
346.1970	 93.0794
346.6792	 -1.0000
347.1614	 -1.0000
347.6435	 150.0000
348.1257	 147.0771
348.6079	 -1.0000
349.0901	 -1.0000
349.5722	 -1.0000
350.0544	 77.4385
350.5366	 150.0000
351.0187	 150.0000
351.5009	 -1.0000
351.9831	 -1.0000
352.4652	 150.0000
352.9474	 150.0000
353.4296	 150.0000
353.9117	 150.0000
354.3939	 -1.0000
354.8761	 -1.0000
355.3582	 34.3245
355.8404	 64.0940
356.3226	 27.2253
356.8047	 -1.0000
357.2869	 11.9045
357.7691	 29.7544
358.2513	 150.0000
358.7334	 150.0000
359.2156	 150.0000
359.6978	 150.0000
360.1799	 -1.0000
360.6621	 150.0000
361.1443	 28.7144
361.6264	 58.5239
362.1086	 111.9361
362.5908	 150.0000
363.0729	 35.8040
363.5551	 -1.0000
364.0373	 33.7323
364.5194	 83.8335
365.0016	 150.0000
365.4838	 -1.0000
365.9660	 66.2043
366.4481	 4.4551
366.9303	 -1.0000
367.4125	 -1.0000
367.8946	 65.1181
368.3768	 33.3822
368.8590	 150.0000
369.3411	 14.4298
369.8233	 -1.0000
370.3055	 -1.0000
370.7876	 9.9022
371.2698	 -1.0000
371.7520	 150.0000
372.2341	 70.8712
372.7163	 53.6955
373.1985	 10.6695
373.6806	 -1.0000
374.1628	 -1.0000
374.6450	 -1.0000
375.1272	 150.0000
375.6093	 -1.0000
376.0915	 -1.0000
376.5737	 -1.0000
377.0558	 -1.0000
377.5380	 -1.0000
378.0202	 -1.0000
378.5023	 -1.0000
378.9845	 22.9081
379.4667	 150.0000
379.9488	 -1.0000
380.4310	 150.0000
380.9132	 150.0000
381.3953	 150.0000
381.8775	 150.0000
382.3597	 150.0000
382.8419	 68.3638
383.3240	 46.9673
383.8062	 -1.0000
384.2884	 150.0000
384.7705	 28.3910
385.2527	 18.8683
385.7349	 7.5668
386.2170	 -1.0000
386.6992	 -1.0000
387.1814	 95.7909
387.6635	 71.2157
388.1457	 74.9077
388.6279	 57.2508
389.1100	 -1.0000
389.5922	 -1.0000
390.0744	 150.0000
390.5565	 136.2796
391.0387	 24.2076
391.5209	 136.6719
392.0031	 150.0000
392.4852	 63.3419
392.9674	 -1.0000
393.4496	 -1.0000
393.9317	 16.0823
394.4139	 135.5201
394.8961	 150.0000
395.3782	 150.0000
395.8604	 150.0000
396.3426	 98.7726
396.8247	 -1.0000
397.3069	 140.9523
397.7891	 150.0000
398.2712	 150.0000
398.7534	 -1.0000
399.2356	 150.0000
399.7178	 150.0000
400.1999	 150.0000
400.6821	 150.0000
401.1643	 64.3621
401.6464	 -1.0000
402.1286	 7.6120
402.6108	 65.1229
403.0929	 108.5537
403.5751	 128.5989
404.0573	 150.0000
404.5394	 150.0000
405.0216	 -1.0000
405.5038	 -1.0000
405.9859	 -1.0000
406.4681	 73.2384
406.9503	 111.2078
407.4324	 99.0601
407.9146	 82.8803
408.3968	 35.5169
408.8790	 33.1957
409.3611	 90.5824
409.8433	 48.9799
410.3255	 68.7078
410.8076	 133.6497
411.2898	 -1.0000
411.7720	 150.0000
412.2541	 -1.0000
412.7363	 150.0000
413.2185	 -1.0000
413.7006	 150.0000
414.1828	 150.0000
414.6650	 -0.7683
415.1471	 47.1702
415.6293	 150.0000
416.1115	 150.0000
416.5937	 150.0000
417.0758	 96.1123
417.5580	 14.0576
418.0402	 150.0000
418.5223	 150.0000
419.0045	 150.0000
419.4867	 150.0000
419.9688	 39.4726
420.4510	 -1.0000
420.9332	 22.4430
421.4153	 69.6935
421.8975	 63.5271
422.3797	 63.9891
422.8618	 150.0000
423.3440	 -1.0000
423.8262	 124.5326
424.3083	 22.5055
424.7905	 59.2418
425.2727	 150.0000
425.7549	 150.0000
426.2370	 140.7790
426.7192	 102.0885
427.2014	 150.0000
427.6835	 150.0000
428.1657	 150.0000
428.6479	 101.4445
429.1300	 150.0000
429.6122	 -1.0000
430.0944	 8.6743
430.5765	 42.1309
431.0587	 105.7892
431.5409	 92.6945
432.0230	 -1.0000
432.5052	 54.5178
432.9874	 -1.0000
433.4696	 7.4768
433.9517	 79.3956
434.4339	 150.0000
434.9161	 150.0000
435.3982	 150.0000
435.8804	 -1.0000
436.3626	 150.0000
436.8447	 74.7981
437.3269	 119.0658
437.8091	 148.1125
438.2912	 150.0000
438.7734	 150.0000
439.2556	 150.0000
439.7377	 -1.0000
440.2199	 -1.0000
440.7021	 -1.0000
441.1842	 -1.0000
441.6664	 -1.0000
442.1486	 -1.0000
442.6308	 150.0000
443.1129	 150.0000
443.5951	 150.0000
444.0773	 150.0000
444.5594	 -1.0000
445.0416	 20.5360
445.5238	 96.4750
446.0059	 -1.0000
446.4881	 -1.0000
446.9703	 -1.0000
447.4524	 130.8664
447.9346	 129.4471
448.4168	 -1.0000
448.8989	 -1.0000
449.3811	 -1.0000
449.8633	 150.0000
450.3455	 150.0000
450.8276	 -1.0000
451.3098	 -1.0000
451.7920	 150.0000
452.2741	 150.0000
452.7563	 138.1764
453.2385	 150.0000
453.7206	 130.2522
454.2028	 75.1251
454.6850	 87.8590
455.1671	 80.4835
455.6493	 81.2635
456.1315	 79.0734
456.6136	 61.1276
457.0958	 52.3905
457.5780	 64.2381
458.0602	 63.0513
458.5423	 41.4191
459.0245	 16.2345
459.5067	 4.6662
459.9888	 0.3700
460.4710	 -1.0000
460.9532	 -0.9522
461.4353	 7.2219
461.9175	 1.6017
462.3997	 10.1260
462.8818	 21.5714
463.3640	 17.7315
463.8462	 8.5283
464.3283	 6.2049
464.8105	 3.7808
465.2927	 -1.0000
465.7748	 -1.0000
466.2570	 2.2379
466.7392	 2.7117
467.2214	 2.7914
467.7035	 5.8294
468.1857	 5.0422
468.6679	 0.8732
469.1500	 -0.4695
469.6322	 3.7822
470.1144	 6.9458
470.5965	 3.6210
471.0787	 1.3076
471.5609	 1.5102
472.0430	 -1.0000
472.5252	 -1.0000
473.0074	 -1.0000
473.4895	 -1.0000
473.9717	 -1.0000
474.4539	 -1.0000
474.9361	 0.7563
475.4182	 4.5836
475.9004	 4.5194
476.3826	 2.4679
476.8647	 3.1597
477.3469	 3.2934
477.8291	 1.7114
478.3112	 1.2110
478.7934	 2.0738
479.2756	 2.0000
479.7577	 1.7811
480.2399	 2.9613
480.7221	 3.3653
481.2042	 2.4584
481.6864	 0.9349
482.1686	 -0.1421
482.6507	 1.2538
483.1329	 2.3218
483.6151	 1.0224
484.0973	 -0.2653
484.5794	 0.0931
485.0616	 1.2345
485.5438	 1.7835
486.0259	 1.7399
486.5081	 1.4488
486.9903	 1.0724
487.4724	 1.0995
487.9546	 1.4073
488.4368	 1.0559
488.9189	 0.4636
489.4011	 0.8872
489.8833	 1.2775
490.3654	 1.2450
490.8476	 1.1099
491.3298	 1.3982
491.8120	 1.7541
492.2941	 1.2663
492.7763	 1.1831
493.2585	 1.6472
493.7406	 1.5423
494.2228	 1.2787
494.7050	 1.3694
495.1871	 0.9745
495.6693	 0.6820
496.1515	 0.6659
496.6336	 0.8700
497.1158	 1.4883
497.5980	 1.3270
498.0801	 0.7125
498.5623	 0.5521
499.0445	 0.3896
499.5266	 0.3133
500.0088	 0.5824
500.4910	 0.7193
500.9732	 0.3908
501.4553	 0.4512
501.9375	 1.2056
502.4197	 1.1037
502.9018	 0.3034
503.3840	 0.1496
503.8662	 0.4420
504.3483	 0.6386
504.8305	 0.5689
505.3127	 0.2559
505.7948	 -0.0750
506.2770	 -0.0055
506.7592	 0.3424
507.2413	 0.5965
507.7235	 0.6196
508.2057	 0.6386
508.6879	 0.7357
509.1700	 0.7570
509.6522	 0.7242
510.1344	 0.4731
510.6165	 0.0969
511.0987	 0.0865
511.5809	 0.3979
512.0630	 0.5167
512.5452	 0.4094
513.0274	 0.2832
513.5095	 0.2441
513.9917	 0.2581
514.4739	 0.2025
514.9560	 0.3197
515.4382	 0.4945
515.9204	 0.4762
516.4025	 0.3771
516.8847	 0.1931
517.3669	 0.1999
517.8491	 0.4203
518.3312	 0.4092
518.8134	 0.4282
519.2956	 0.5309
519.7777	 0.4612
520.2599	 0.3978
520.7421	 0.3846
521.2242	 0.3907
521.7064	 0.3035
522.1886	 0.1889
522.6707	 0.0852
523.1529	 -0.0009
523.6351	 0.0746
524.1172	 0.2121
524.5994	 0.2649
525.0816	 0.1729
525.5638	 -0.0019
526.0459	 -0.0817
526.5281	 0.0970
527.0103	 0.3142
527.4924	 0.4116
527.9746	 0.4647
528.4568	 0.3205
528.9389	 0.1357
529.4211	 0.2346
529.9033	 0.2583
530.3854	 0.1667
530.8676	 0.2509
531.3498	 0.3266
531.8319	 0.2527
532.3141	 0.1384
532.7963	 0.0597
533.2784	 0.1285
533.7606	 0.1943
534.2428	 0.1644
534.7250	 0.1747
535.2071	 0.1770
535.6893	 0.1363
536.1715	 0.0668
536.6536	 0.0523
537.1358	 0.1072
537.6180	 0.1081
538.1001	 0.1629
538.5823	 0.3432
539.0645	 0.3346
539.5466	 0.1176
540.0288	 0.0372
540.5110	 0.0214
540.9931	 0.0354
541.4753	 0.0515
541.9575	 -0.0596
542.4397	 -0.0963
542.9218	 -0.0101
543.4040	 0.0961
543.8862	 0.1865
544.3683	 0.2399
544.8505	 0.1722
545.3327	 0.0353
545.8148	 0.0904
546.2970	 0.2095
546.7792	 0.2274
547.2613	 0.3091
547.7435	 0.2589
548.2257	 0.0278
548.7078	 0.0010
549.1900	 0.1932
549.6722	 0.3854
550.1543	 0.3229
550.6365	 0.1124
551.1187	 0.1495
551.6009	 0.1608
552.0830	 0.0182
552.5652	 0.0201
553.0474	 0.0683
553.5295	 0.0354
554.0117	 0.0609
554.4939	 0.1962
554.9760	 0.2326
555.4582	 0.1909
555.9404	 0.1784
556.4225	 0.1500
556.9047	 0.1454
557.3869	 0.1589
557.8690	 0.1834
558.3512	 0.1740
558.8334	 0.1279
559.3156	 0.1276
559.7977	 0.1357
560.2799	 0.1113
560.7621	 0.0985
561.2442	 0.0667
561.7264	 0.0103
562.2086	 0.0256
562.6907	 0.0760
563.1729	 0.0827
563.6551	 0.0312
564.1372	 0.0289
564.6194	 0.0681
565.1016	 0.0363
565.5837	 -0.0224
566.0659	 0.0268
566.5481	 0.1130
567.0302	 0.1456
567.5124	 0.2230
567.9946	 0.1898
568.4768	 0.1385
568.9589	 0.2206
569.4411	 0.2524
569.9233	 0.2119
570.4054	 0.1339
570.8876	 0.0544
571.3698	 0.1383
571.8519	 0.1905
572.3341	 0.0652
572.8163	 0.0839
573.2984	 0.2036
573.7806	 0.1686
574.2628	 0.0563
574.7449	 0.0602
575.2271	 0.0853
575.7093	 0.1184
576.1915	 0.2437
576.6736	 0.2291
577.1558	 0.1786
577.6380	 0.1999
578.1201	 0.1686
578.6023	 0.1635
579.0845	 0.1682
579.5666	 0.1038
580.0488	 0.0904
580.5310	 0.1218
581.0131	 0.1121
581.4953	 0.1188
581.9775	 0.1215
582.4596	 0.1208
582.9418	 0.1849
583.4240	 0.2633
583.9061	 0.2704
584.3883	 0.1977
584.8705	 0.1096
585.3527	 0.0794
585.8348	 0.0334
586.3170	 -0.0090
586.7992	 0.0653
587.2813	 0.1544
587.7635	 0.1804
588.2457	 0.0695
588.7278	 -0.0933
589.2100	 -0.0982
589.6922	 -0.0184
590.1743	 0.0444
590.6565	 0.0890
591.1387	 0.0828
591.6208	 0.0685
592.1030	 0.0420
592.5852	 0.0120
593.0674	 0.0787
593.5495	 0.1090
594.0317	 0.0219
594.5139	 -0.0086
594.9960	 0.0635
595.4782	 0.1205
595.9604	 0.1362
596.4425	 0.1203
596.9247	 0.0547
597.4069	 0.0383
597.8890	 0.1157
598.3712	 0.1012
598.8534	 0.0225
599.3355	 0.0224
599.8177	 0.0473
600.2999	 0.0738
600.7820	 0.0550
601.2642	 -0.0059
601.7464	 -0.0161
602.2286	 0.0310
602.7107	 0.0684
603.1929	 0.0687
603.6751	 0.0348
604.1572	 0.0255
604.6394	 0.0152
605.1216	 0.0297
605.6037	 0.1467
606.0859	 0.2041
606.5681	 0.1455
607.0502	 0.0801
607.5324	 0.0641
608.0146	 0.0676
608.4967	 0.0700
608.9789	 0.0709
609.4611	 0.0362
609.9433	 -0.0121
610.4254	 0.0096
610.9076	 0.1019
611.3898	 0.1193
611.8719	 0.0890
612.3541	 0.1168
612.8363	 0.1325
613.3184	 0.1081
613.8006	 0.1174
614.2828	 0.1126
614.7649	 0.0393
615.2471	 -0.0322
615.7293	 -0.0115
616.2114	 0.1007
616.6936	 0.1659
617.1758	 0.1374
617.6579	 0.1243
618.1401	 0.0903
618.6223	 0.0291
619.1045	 0.0197
619.5866	 0.0418
620.0688	 0.0835
620.5510	 0.1240
621.0331	 0.1124
621.5153	 0.0204
621.9975	 -0.0360
622.4796	 0.0276
622.9618	 0.1210
623.4440	 0.1561
623.9261	 0.1579
624.4083	 0.1210
624.8905	 0.0434
625.3726	 0.0109
625.8548	 0.0450
626.3370	 0.0733
626.8192	 0.0460
627.3013	 0.0666
627.7835	 0.1309
628.2657	 0.1027
628.7478	 0.0604
629.2300	 0.0570
629.7122	 0.0524
630.1943	 0.0862
630.6765	 0.1057
631.1587	 0.0537
631.6408	 0.0037
632.1230	 0.0092
632.6052	 0.0043
633.0873	 -0.0013
633.5695	 0.0559
634.0517	 0.0919
634.5339	 0.1136
635.0160	 0.1550
635.4982	 0.1454
635.9804	 0.1271
636.4625	 0.1002
636.9447	 0.0579
637.4269	 0.0965
637.9090	 0.1720
638.3912	 0.1576
638.8734	 0.0889
639.3555	 0.0900
639.8377	 0.1323
640.3199	 0.1109
640.8020	 0.0320
641.2842	 0.0171
641.7664	 0.0646
642.2485	 0.0490
642.7307	 0.0013
643.2129	 0.0174
643.6951	 0.0735
644.1772	 0.1019
644.6594	 0.0762
645.1416	 0.0369
645.6237	 0.0105
646.1059	 -0.0180
646.5881	 -0.0007
647.0702	 0.0638
647.5524	 0.0793
648.0346	 0.0950
648.5167	 0.1310
648.9989	 0.0873
649.4811	 0.0387
649.9632	 0.0203
650.4454	 0.0100
650.9276	 0.0341
651.4098	 0.0355
651.8919	 0.0403
652.3741	 0.0814
652.8563	 0.0653
653.3384	 0.0201
653.8206	 0.0277
654.3028	 0.0644
654.7849	 0.0996
655.2671	 0.1042
655.7493	 0.1006
656.2314	 0.0936
656.7136	 0.0717
657.1958	 0.0793
657.6779	 0.0863
658.1601	 0.0416
658.6423	 -0.0273
659.1244	 -0.0264
659.6066	 0.0512
660.0888	 0.0998
660.5710	 0.1369
661.0531	 0.1624
661.5353	 0.1268
662.0175	 0.0616
662.4996	 -0.0003
662.9818	 0.0192
663.4640	 0.0938
663.9461	 0.1071
664.4283	 0.0575
664.9105	 0.0095
665.3926	 0.0052
665.8748	 0.0459
666.3570	 0.0783
666.8391	 0.1003
667.3213	 0.1123
667.8035	 -0.0925
668.2857	 -0.0622
668.7678	 0.0382
669.2500	 0.0375
669.7322	 0.0396
670.2143	 0.0365
670.6965	 0.0248
671.1787	 0.0567
671.6608	 0.0811
672.1430	 0.0495
672.6252	 0.0501
673.1073	 0.0885
673.5895	 0.0909
674.0717	 0.0711
674.5538	 0.0683
675.0360	 0.0528
675.5182	 0.0236
676.0003	 0.0376
676.4825	 0.0626
676.9647	 0.0717
677.4469	 0.0794
677.9290	 0.0787
678.4112	 0.0614
678.8934	 0.0343
679.3755	 0.0745
679.8577	 0.1063
680.3399	 0.0534
680.8220	 0.0049
681.3042	 -0.0037
681.7864	 0.0168
682.2685	 0.0666
682.7507	 0.0752
683.2329	 0.0473
683.7150	 0.0461
684.1972	 0.0661
684.6794	 0.0593
685.1616	 0.0553
685.6437	 0.0384
686.1259	 0.0230
686.6081	 0.0343
687.0902	 0.0537
687.5724	 0.0360
688.0546	 -0.0023
688.5367	 0.0057
689.0189	 0.0146
689.5011	 0.0031
689.9832	 0.0133
690.4654	 0.0076
690.9476	 -0.0199
691.4297	 -0.0095
691.9119	 0.0308
692.3941	 0.0381
692.8762	 0.0391
693.3584	 0.0395
693.8406	 0.0052
694.3228	 0.0155
694.8049	 0.0553
695.2871	 0.0380
695.7693	 0.0258
696.2514	 0.0412
696.7336	 0.0293
697.2158	 0.0352
697.6979	 0.0802
698.1801	 0.1041
698.6623	 0.0773
699.1444	 0.0559
699.6266	 0.0697
700.1088	 0.0803
700.5909	 0.0467
701.0731	 0.0051
701.5553	 0.0235
702.0375	 0.0491
702.5196	 0.0329
703.0018	 -0.0004
703.4840	 -0.0355
703.9661	 -0.0213
704.4483	 0.0281
704.9305	 0.0296
705.4126	 0.0054
705.8948	 0.0047
706.3770	 0.0334
706.8591	 0.0668
707.3413	 0.0525
707.8235	 0.0168
708.3056	 0.0149
708.7878	 0.0354
709.2700	 0.0394
709.7521	 0.0313
710.2343	 0.0264
710.7165	 0.0152
711.1987	 0.0063
711.6808	 0.0078
712.1630	 0.0290
712.6452	 0.0597
713.1273	 0.0430
713.6095	 0.0030
714.0917	 -0.0050
714.5738	 -0.0025
715.0560	 -0.0050
715.5382	 -0.0015
716.0203	 0.0194
716.5025	 0.0409
716.9847	 0.0187
717.4668	 0.0048
717.9490	 0.0598
718.4312	 0.1025
718.9134	 0.0792
719.3955	 0.0589
719.8777	 0.0791
720.3599	 0.0849
720.8420	 0.0675
721.3242	 0.0729
721.8064	 0.0656
722.2885	 0.0332
722.7707	 -0.0031
723.2529	 -0.0439
723.7350	 -0.0366
724.2172	 0.0064
724.6994	 0.0429
725.1815	 0.0393
725.6637	 -0.0056
726.1459	 -0.0184
726.6280	 0.0020
727.1102	 0.0312
727.5924	 0.0628
728.0746	 0.0946
728.5567	 0.1042
729.0389	 0.0787
729.5211	 0.0560
730.0032	 0.0190
730.4854	 -0.0066
730.9676	 0.0272
731.4497	 0.0554
731.9319	 0.0473
732.4141	 0.0298
732.8962	 0.0155
733.3784	 0.0194
733.8606	 0.0216
734.3427	 0.0241
734.8249	 0.0481
735.3071	 0.0766
735.7893	 0.0705
736.2714	 0.0301
736.7536	 0.0317
737.2358	 0.0494
737.7179	 0.0394
738.2001	 0.0268
738.6823	 0.0110
739.1644	 -0.0200
739.6466	 -0.0334
740.1288	 -0.0108
740.6109	 0.0126
741.0931	 0.0332
741.5753	 0.0375
742.0574	 0.0408
742.5396	 0.0446
743.0218	 0.0036
743.5039	 -0.0227
743.9861	 0.0030
744.4683	 0.0350
744.9505	 0.0639
745.4326	 0.0551
745.9148	 0.0115
746.3970	 0.0127
746.8791	 0.0379
747.3613	 0.0160
747.8435	 -0.0237
748.3256	 -0.0370
748.8078	 -0.0326
749.2900	 -0.0317
749.7721	 -0.0244
750.2543	 -0.0245
750.7365	 -0.0443
751.2186	 -0.0235
751.7008	 0.0139
752.1830	 0.0239
752.6652	 0.0165
753.1473	 0.0124
753.6295	 0.0231
754.1117	 0.0187
754.5938	 0.0608
755.0760	 0.0697
755.5582	 0.0393
756.0403	 0.0585
756.5225	 0.0563
757.0047	 0.0401
757.4868	 0.0349
757.9690	 0.0283
758.4512	 0.0189
758.9333	 0.0292
759.4155	 0.0354
759.8977	 0.0390
760.3798	 0.0443
760.8620	 -0.0026
761.3442	 -0.0375
761.8264	 0.0037
762.3085	 0.0449
762.7907	 0.0419
763.2729	 0.0340
763.7550	 0.0559
764.2372	 0.0453
764.7194	 -0.0110
765.2015	 -0.0300
765.6837	 -0.0032
766.1659	 0.0323
766.6480	 0.0491
767.1302	 0.0272
767.6124	 0.0033
768.0945	 0.0270
768.5767	 0.0445
769.0589	 0.0241
769.5411	 0.0154
770.0232	 0.0393
770.5054	 0.0626
770.9876	 0.0445
771.4697	 0.0291
771.9519	 0.0511
772.4341	 0.0623
772.9162	 0.0402
773.3984	 0.0183
773.8806	 0.0244
774.3627	 0.0465
774.8449	 0.0601
775.3271	 0.0446
775.8092	 0.0196
776.2914	 0.0162
776.7736	 0.0247
777.2557	 0.0394
777.7379	 0.0583
778.2201	 0.0784
778.7023	 0.0780
779.1844	 0.0477
779.6666	 0.0082
780.1488	 -0.0108
780.6309	 -0.0105
781.1131	 -0.0150
781.5953	 -0.0117
782.0774	 0.0011
782.5596	 0.0153
783.0418	 0.0239
783.5239	 0.0346
784.0061	 0.0554
784.4883	 0.0573
784.9704	 0.0379
785.4526	 0.0426
785.9348	 0.0480
786.4170	 0.0187
786.8991	 0.0159
787.3813	 0.0479
787.8635	 0.0519
788.3456	 0.0357
788.8278	 0.0291
789.3100	 0.0176
789.7921	 -0.0074
790.2743	 -0.0139
790.7565	 0.0312
791.2386	 0.0747
791.7208	 0.0590
792.2030	 0.0284
792.6851	 0.0278
793.1673	 0.0190
793.6495	 0.0045
794.1316	 0.0168
794.6138	 0.0257
795.0960	 0.0216
795.5782	 0.0166
796.0603	 0.0369
796.5425	 0.0433
797.0247	 0.0215
797.5068	 0.0271
797.9890	 0.0240
798.4712	 -0.0051
798.9533	 -0.0149
799.4355	 0.0073
799.9177	 0.0066
800.3998	 -0.0213
800.8820	 -0.0201
801.3642	 0.0010
801.8463	 0.0225
802.3285	 0.0432
802.8107	 0.0599
803.2929	 0.0553
803.7750	 0.0272
804.2572	 -0.0043
804.7394	 -0.0139
805.2215	 0.0057
805.7037	 0.0066
806.1859	 -0.0006
806.6680	 0.0204
807.1502	 0.0439
807.6324	 0.0334
808.1145	 -0.0050
808.5967	 -0.0238
809.0789	 -0.0023
809.5610	 0.0279
810.0432	 0.0403
810.5254	 0.0435
811.0076	 0.0496
811.4897	 0.0406
811.9719	 0.0068
812.4541	 0.0063
812.9362	 0.0177
813.4184	 -0.0007
813.9006	 0.0122
814.3827	 0.0390
814.8649	 0.0256
815.3471	 -0.0120
815.8292	 -0.0259
816.3114	 0.0060
816.7936	 0.0303
817.2757	 0.0330
817.7579	 0.0432
818.2401	 0.0630
818.7222	 0.0767
819.2044	 0.0507
819.6866	 0.0420
820.1688	 0.0666
820.6509	 0.0514
821.1331	 0.0348
821.6153	 0.0206
822.0974	 0.0063
822.5796	 0.0204
823.0618	 0.0212
823.5439	 0.0355
824.0261	 0.0680
824.5083	 0.0671
824.9904	 0.0503
825.4726	 0.0436
825.9548	 0.0416
826.4369	 0.0246
826.9191	 0.0089
827.4013	 0.0139
827.8835	 0.0181
828.3656	 0.0079
828.8478	 -0.0043
829.3300	 -0.0057
829.8121	 0.0139
830.2943	 0.0532
830.7765	 0.0571
831.2586	 0.0152
831.7408	 0.0046
832.2230	 0.0239
832.7051	 0.0369
833.1873	 0.0389
833.6695	 0.0251
834.1516	 0.0026
834.6338	 -0.0099
835.1160	 0.0193
835.5981	 0.0488
836.0803	 0.0309
836.5625	 0.0055
837.0447	 -0.0062
837.5268	 -0.0100
838.0090	 0.0126
838.4912	 0.0312
838.9733	 0.0224
839.4555	 0.0201
839.9377	 0.0358
840.4198	 0.0547
840.9020	 0.0370
841.3842	 -0.0060
841.8663	 -0.0259
842.3485	 -0.0161
842.8307	 0.0078
843.3128	 0.0280
843.7950	 0.0264
844.2772	 0.0025
844.7594	 -0.0135
845.2415	 -0.0128
845.7237	 -0.0132
846.2059	 0.0003
846.6880	 0.0244
847.1702	 0.0089
847.6524	 -0.0138
848.1345	 0.0098
848.6167	 0.0211
849.0989	 -0.0043
849.5810	 0.0059
850.0632	 0.0305
850.5454	 0.0211
851.0275	 -0.0007
851.5097	 -0.0189
851.9919	 -0.0143
852.4740	 -0.0019
852.9562	 0.0023
853.4384	 -0.0031
853.9206	 -0.0035
854.4027	 0.0054
854.8849	 0.0011
855.3671	 0.0108
855.8492	 0.0275
856.3314	 0.0264
856.8136	 0.0300
857.2957	 0.0369
857.7779	 0.0356
858.2601	 0.0182
858.7422	 0.0029
859.2244	 0.0130
859.7066	 0.0161
860.1887	 0.0124
860.6709	 0.0243
861.1531	 0.0384
861.6353	 0.0379
862.1174	 0.0283
862.5996	 0.0119
863.0818	 -0.0129
863.5639	 -0.0125
864.0461	 0.0053
864.5283	 0.0041
865.0104	 -0.0024
865.4926	 0.0144
865.9748	 0.0375
866.4569	 0.0449
866.9391	 0.0350
867.4213	 0.0244
867.9034	 0.0380
868.3856	 0.0424
868.8678	 0.0310
869.3499	 0.0277
869.8321	 0.0207
870.3143	 0.0288
870.7965	 0.0529
871.2786	 0.0537
871.7608	 0.0337
872.2430	 0.0166
872.7251	 0.0163
873.2073	 0.0270
873.6895	 0.0209
874.1716	 -0.0129
874.6538	 -0.0408
875.1360	 -0.0254
875.6181	 0.0112
876.1003	 0.0289
876.5825	 0.0196
877.0646	 0.0282
877.5468	 0.0520
878.0290	 0.0364
878.5112	 0.0141
878.9933	 -0.0003
879.4755	 -0.0014
879.9577	 0.0160
880.4398	 0.0240
880.9220	 0.0215
881.4042	 0.0108
881.8863	 -0.0017
882.3685	 -0.0159
882.8507	 -0.0159
883.3328	 0.0059
883.8150	 0.0270
884.2972	 0.0338
884.7793	 0.0289
885.2615	 0.0150
885.7437	 0.0169
886.2258	 0.0347
886.7080	 0.0415
887.1902	 0.0418
887.6724	 0.0444
888.1545	 0.0408
888.6367	 0.0330
889.1189	 0.0302
889.6010	 0.0297
890.0832	 0.0264
890.5654	 0.0148
891.0475	 0.0224
891.5297	 0.0411
892.0119	 0.0432
892.4940	 0.0377
892.9762	 0.0229
893.4584	 0.0155
893.9405	 0.0416
894.4227	 0.0567
894.9049	 0.0378
895.3871	 0.0253
895.8692	 0.0213
896.3514	 0.0234
896.8336	 0.0279
897.3157	 0.0317
897.7979	 0.0464
898.2801	 0.0590
898.7622	 0.0641
899.2444	 0.0522
899.7266	 0.0368
900.2087	 0.0386
900.6909	 0.0285
901.1731	 0.0238
901.6552	 0.0328
902.1374	 0.0434
902.6196	 0.0649
903.1017	 0.0712
903.5839	 0.0743
904.0661	 0.0898
904.5483	 0.0982
905.0304	 0.0882
905.5126	 0.0752
905.9948	 0.0764
906.4769	 0.0757
906.9591	 0.0775
907.4413	 0.0783
907.9234	 0.0829
908.4056	 0.1158
908.8878	 0.1404
909.3699	 0.1410
909.8521	 0.1331
910.3343	 0.1107
910.8164	 0.0823
911.2986	 0.0684
911.7808	 0.0942
912.2630	 0.1241
912.7451	 0.1326
913.2273	 0.1536
913.7095	 0.1559
914.1916	 0.1327
914.6738	 0.1275
915.1560	 0.1312
915.6381	 0.1447
916.1203	 0.1758
916.6025	 0.1972
917.0846	 0.1940
917.5668	 0.1807
918.0490	 0.1681
918.5311	 0.1752
919.0133	 0.1974
919.4955	 0.1913
919.9776	 0.1814
920.4598	 0.2042
920.9420	 0.2385
921.4242	 0.2483
921.9063	 0.2386
922.3885	 0.2590
922.8707	 0.2750
923.3528	 0.2314
923.8350	 0.2081
924.3172	 0.2340
924.7993	 0.2443
925.2815	 0.2646
925.7637	 0.2948
926.2458	 0.3054
926.7280	 0.3209
927.2102	 0.3342
927.6923	 0.3274
928.1745	 0.3019
928.6567	 0.3251
929.1389	 0.4049
929.6210	 0.4171
930.1032	 0.3810
930.5854	 0.3894
931.0675	 0.4301
931.5497	 0.4414
932.0319	 0.4317
932.5140	 0.4361
932.9962	 0.4363
933.4784	 0.4373
933.9605	 0.4305
934.4427	 0.4409
934.9249	 0.4885
935.4070	 0.5321
935.8892	 0.5408
936.3714	 0.5370
936.8535	 0.5727
937.3357	 0.6176
937.8179	 0.6084
938.3001	 0.6021
938.7822	 0.6365
939.2644	 0.6382
939.7466	 0.6136
940.2287	 0.6332
940.7109	 0.6968
941.1931	 0.7416
941.6752	 0.7423
942.1574	 0.7287
942.6396	 0.7437
943.1217	 0.7721
943.6039	 0.7724
944.0861	 0.8017
944.5682	 0.8637
945.0504	 0.9054
945.5326	 0.9198
946.0148	 0.9125
946.4969	 0.9287
946.9791	 0.9605
947.4613	 0.9742
947.9434	 0.9962
948.4256	 1.0307
948.9078	 1.0578
949.3899	 1.0897
949.8721	 1.1144
950.3543	 1.1344
950.8364	 1.1856
951.3186	 1.2232
951.8008	 1.2281
952.2829	 1.2437
952.7651	 1.2694
953.2473	 1.3127
953.7294	 1.3462
954.2116	 1.3461
954.6938	 1.3802
955.1760	 1.4557
955.6581	 1.5029
956.1403	 1.5189
956.6225	 1.5353
957.1046	 1.5500
957.5868	 1.5705
958.0690	 1.6288
958.5511	 1.6900
959.0333	 1.7208
959.5155	 1.7587
959.9976	 1.7940
960.4798	 1.8212
960.9620	 1.8683
961.4441	 1.9235
961.9263	 1.9673
962.4085	 1.9940
962.8907	 2.0175
963.3728	 2.0766
963.8550	 2.1191
964.3372	 2.1343
964.8193	 2.1788
965.3015	 2.2173
965.7837	 2.2614
966.2658	 2.3133
966.7480	 2.3598
967.2302	 2.4087
967.7123	 2.4520
968.1945	 2.5081
968.6767	 2.5725
969.1588	 2.6312
969.6410	 2.6535
970.1232	 2.6761
970.6053	 2.7560
971.0875	 2.8164
971.5697	 2.8375
972.0519	 2.8794
972.5340	 2.9530
973.0162	 3.0294
973.4984	 3.0788
973.9805	 3.1278
974.4627	 3.1932
974.9449	 3.2504
975.4270	 3.3039
975.9092	 3.3698
976.3914	 3.4206
976.8735	 3.4562
977.3557	 3.5122
977.8379	 3.5835
978.3200	 3.6505
978.8022	 3.7126
979.2844	 3.7928
979.7666	 3.8666
980.2487	 3.9218
980.7309	 3.9891
981.2131	 4.0421
981.6952	 4.0933
982.1774	 4.1797
982.6596	 4.2669
983.1417	 4.3262
983.6239	 4.3942
984.1061	 4.4813
984.5882	 4.5495
985.0704	 4.5990
985.5526	 4.6496
986.0347	 4.7003
986.5169	 4.7529
986.9991	 4.8352
987.4813	 4.9291
987.9634	 5.0105
988.4456	 5.0995
988.9278	 5.1909
989.4099	 5.2719
989.8921	 5.3387
990.3743	 5.4118
990.8564	 5.5052
991.3386	 5.5764
991.8208	 5.6363
992.3029	 5.7158
992.7851	 5.7950
993.2673	 5.8733
993.7494	 5.9627
994.2316	 6.0626
994.7138	 6.1481
995.1959	 6.2162
995.6781	 6.3098
996.1603	 6.4113
996.6425	 6.5009
997.1246	 6.6162
997.6068	 6.7132
998.0890	 6.7687
998.5711	 6.8449
999.0533	 6.9449
999.5355	 7.0508
1000.0176	 7.1540
1000.4998	 7.2291
1000.9820	 7.3050
1001.4641	 7.4168
1001.9463	 7.5252
1002.4285	 7.6250
1002.9106	 7.7236
1003.3928	 7.8074
1003.8750	 7.9150
1004.3572	 8.0381
1004.8393	 8.1300
1005.3215	 8.2001
1005.8037	 8.2745
1006.2858	 8.3804
1006.7680	 8.5115
1007.2502	 8.6181
1007.7323	 8.7084
1008.2145	 8.8320
1008.6967	 8.9522
1009.1788	 9.0208
1009.6610	 9.1166
1010.1432	 9.2548
1010.6253	 9.3583
1011.1075	 9.4434
1011.5897	 9.5478
1012.0718	 9.6652
1012.5540	 9.7708
1013.0362	 9.8749
1013.5184	 10.0022
1014.0005	 10.1360
1014.4827	 10.2612
1014.9649	 10.3725
1015.4470	 10.4800
1015.9292	 10.5998
1016.4114	 10.7212
1016.8935	 10.8167
1017.3757	 10.9058
1017.8579	 11.0300
1018.3400	 11.1767
1018.8222	 11.3140
1019.3044	 11.4326
1019.7865	 11.5574
1020.2687	 11.6925
1020.7509	 11.8359
1021.2331	 11.9577
1021.7152	 12.0367
1022.1974	 12.1456
1022.6796	 12.2825
1023.1617	 12.3964
1023.6439	 12.5159
1024.1261	 12.6586
1024.6082	 12.7862
1025.0904	 12.9061
1025.5726	 13.0540
1026.0547	 13.1940
1026.5369	 13.3249
1027.0191	 13.4663
1027.5012	 13.5978
1027.9834	 13.7265
1028.4656	 13.8456
1028.9477	 13.9586
1029.4299	 14.0865
1029.9121	 14.2384
1030.3943	 14.3923
1030.8764	 14.5216
1031.3586	 14.6492
1031.8408	 14.7844
1032.3229	 14.9193
1032.8051	 15.0479
1033.2873	 15.1891
1033.7694	 15.3433
1034.2516	 15.4565
1034.7338	 15.5699
1035.2159	 15.7418
1035.6981	 15.9088
1036.1803	 16.0590
1036.6624	 16.2154
1037.1446	 16.3441
1037.6268	 16.4569
1038.1090	 16.5886
1038.5911	 16.7193
1039.0733	 16.8444
1039.5555	 16.9881
1040.0376	 17.1425
1040.5198	 17.3118
1041.0020	 17.5053
1041.4841	 17.6799
1041.9663	 17.8080
1042.4485	 17.9314
1042.9306	 18.0563
1043.4128	 18.1690
1043.8950	 18.3138
1044.3771	 18.4723
1044.8593	 18.6208
1045.3415	 18.8099
1045.8236	 19.0117
1046.3058	 19.1758
1046.7880	 19.2931
1047.2702	 19.3932
1047.7523	 19.5391
1048.2345	 19.7141
1048.7167	 19.8770
1049.1988	 20.0248
1049.6810	 20.1549
1050.1632	 20.3100
1050.6453	 20.4903
1051.1275	 20.6538
1051.6097	 20.7914
1052.0918	 20.8950
1052.5740	 21.0332
1053.0562	 21.2256
1053.5383	 21.4196
1054.0205	 21.6024
1054.5027	 21.7395
1054.9849	 21.8758
1055.4670	 22.0673
1055.9492	 22.2620
1056.4314	 22.4417
1056.9135	 22.5953
1057.3957	 22.7231
1057.8779	 22.8755
1058.3600	 23.0463
1058.8422	 23.1827
1059.3244	 23.3196
1059.8065	 23.5043
1060.2887	 23.6938
1060.7709	 23.8658
1061.2530	 24.0154
1061.7352	 24.1499
1062.2174	 24.3188
1062.6995	 24.5197
1063.1817	 24.6731
1063.6639	 24.7888
1064.1461	 24.9223
1064.6282	 25.0745
1065.1104	 25.2604
1065.5926	 25.4597
1066.0747	 25.6299
1066.5569	 25.7726
1067.0391	 25.9234
1067.5212	 26.1000
1068.0034	 26.2755
1068.4856	 26.4573
1068.9677	 26.6469
1069.4499	 26.8089
1069.9321	 26.9429
1070.4142	 27.0781
1070.8964	 27.2310
1071.3786	 27.3812
1071.8608	 27.5438
1072.3429	 27.7391
1072.8251	 27.9284
1073.3073	 28.0861
1073.7894	 28.2336
1074.2716	 28.4026
1074.7538	 28.5916
1075.2359	 28.7567
1075.7181	 28.9134
1076.2003	 29.0759
1076.6824	 29.2193
1077.1646	 29.3934
1077.6468	 29.5832
1078.1289	 29.7506
1078.6111	 29.9201
1079.0933	 30.0757
1079.5754	 30.2387
1080.0576	 30.4315
1080.5398	 30.6126
1081.0220	 30.7604
1081.5041	 30.8965
1081.9863	 31.0434
1082.4685	 31.2035
1082.9506	 31.3803
1083.4328	 31.5552
1083.9150	 31.6884
1084.3971	 31.8215
1084.8793	 32.0113
1085.3615	 32.2168
1085.8436	 32.3906
1086.3258	 32.5435
1086.8080	 32.7035
1087.2901	 32.8719
1087.7723	 33.0285
1088.2545	 33.1695
1088.7367	 33.3361
1089.2188	 33.5282
1089.7010	 33.6895
1090.1832	 33.8443
1090.6653	 34.0318
1091.1475	 34.2077
1091.6297	 34.3586
1092.1118	 34.5181
1092.5940	 34.6710
1093.0762	 34.8110
1093.5583	 34.9835
1094.0405	 35.1596
1094.5227	 35.3082
1095.0048	 35.4659
1095.4870	 35.6360
1095.9692	 35.8226
1096.4513	 35.9904
1096.9335	 36.1137
1097.4157	 36.2635
1097.8979	 36.4579
1098.3800	 36.6562
1098.8622	 36.8253
1099.3444	 36.9812
1099.8265	 37.1479
1100.3087	 37.3060
1100.7909	 37.4700
1101.2730	 37.6389
1101.7552	 37.8070
1102.2374	 37.9713
1102.7195	 38.1336
1103.2017	 38.3074
1103.6839	 38.4810
1104.1660	 38.6536
1104.6482	 38.8127
1105.1304	 38.9591
1105.6126	 39.0999
1106.0947	 39.2625
1106.5769	 39.4811
1107.0591	 39.6799
1107.5412	 39.8176
1108.0234	 39.9532
1108.5056	 40.1008
1108.9877	 40.2561
1109.4699	 40.4316
1109.9521	 40.6246
1110.4342	 40.8054
1110.9164	 40.9514
1111.3986	 41.0960
1111.8807	 41.2699
1112.3629	 41.4419
1112.8451	 41.6021
1113.3272	 41.7704
1113.8094	 41.9231
1114.2916	 42.0556
1114.7738	 42.2163
1115.2559	 42.3999
1115.7381	 42.5613
1116.2203	 42.7165
1116.7024	 42.8721
1117.1846	 43.0300
1117.6668	 43.1982
1118.1489	 43.3570
1118.6311	 43.5167
1119.1133	 43.6650
1119.5954	 43.7900
1120.0776	 43.9274
1120.5598	 44.0925
1121.0419	 44.2573
1121.5241	 44.4149
1122.0063	 44.5780
1122.4885	 44.7150
1122.9706	 44.8594
1123.4528	 45.0358
1123.9350	 45.1811
1124.4171	 45.3271
1124.8993	 45.5073
1125.3815	 45.6730
1125.8636	 45.8260
1126.3458	 45.9630
1126.8280	 46.0951
1127.3101	 46.2589
1127.7923	 46.4383
1128.2745	 46.6010
1128.7566	 46.7363
1129.2388	 46.8939
1129.7210	 47.0564
1130.2031	 47.1846
1130.6853	 47.3469
1131.1675	 47.5424
1131.6497	 47.6926
1132.1318	 47.8072
1132.6140	 47.9482
1133.0962	 48.1342
1133.5783	 48.3419
1134.0605	 48.5280
1134.5427	 48.6922
1135.0248	 48.8587
1135.5070	 49.0155
1135.9892	 49.1530
1136.4713	 49.2813
1136.9535	 49.4020
1137.4357	 49.5560
1137.9178	 49.7551
1138.4000	 49.9133
1138.8822	 50.0423
1139.3644	 50.2019
1139.8465	 50.3656
1140.3287	 50.5172
1140.8109	 50.6775
1141.2930	 50.8233
1141.7752	 50.9585
1142.2574	 51.0962
1142.7395	 51.2093
1143.2217	 51.3622
1143.7039	 51.5603
1144.1860	 51.7106
1144.6682	 51.8290
1145.1504	 51.9672
1145.6325	 52.1161
1146.1147	 52.2548
1146.5969	 52.3925
1147.0790	 52.5351
1147.5612	 52.6604
1148.0434	 52.7918
1148.5256	 52.9484
1149.0077	 53.0868
1149.4899	 53.2057
1149.9721	 53.3345
1150.4542	 53.4947
1150.9364	 53.6683
1151.4186	 53.7821
1151.9007	 53.8732
1152.3829	 54.0220
1152.8651	 54.1897
1153.3472	 54.3395
1153.8294	 54.4842
1154.3116	 54.6048
1154.7937	 54.7142
1155.2759	 54.8608
1155.7581	 55.0216
1156.2403	 55.1356
1156.7224	 55.2222
1157.2046	 55.3508
1157.6868	 55.4915
1158.1689	 55.6291
1158.6511	 55.8010
1159.1333	 55.9420
1159.6154	 56.0402
1160.0976	 56.1663
1160.5798	 56.2953
1161.0619	 56.4132
1161.5441	 56.5652
1162.0263	 56.7167
1162.5084	 56.8264
1162.9906	 56.9530
1163.4728	 57.0969
1163.9549	 57.2019
1164.4371	 57.3153
1164.9193	 57.4597
1165.4015	 57.5744
1165.8836	 57.6703
1166.3658	 57.8029
1166.8480	 57.9501
1167.3301	 58.0844
1167.8123	 58.2011
1168.2945	 58.3080
1168.7766	 58.4436
1169.2588	 58.5774
1169.7410	 58.6890
1170.2231	 58.8096
1170.7053	 58.9401
1171.1875	 59.0591
1171.6696	 59.1587
1172.1518	 59.2683
1172.6340	 59.3835
1173.1162	 59.4971
1173.5983	 59.6183
1174.0805	 59.7253
1174.5627	 59.8361
1175.0448	 59.9729
1175.5270	 60.1058
1176.0092	 60.2186
1176.4913	 60.3205
1176.9735	 60.4217
1177.4557	 60.5232
1177.9378	 60.6363
1178.4200	 60.7775
1178.9022	 60.9094
1179.3843	 61.0180
1179.8665	 61.1273
1180.3487	 61.2503
1180.8309	 61.3864
1181.3130	 61.5024
1181.7952	 61.6115
1182.2774	 61.7080
1182.7595	 61.7900
1183.2417	 61.9047
1183.7239	 62.0275
1184.2060	 62.1405
1184.6882	 62.2631
1185.1704	 62.3838
1185.6525	 62.4786
1186.1347	 62.5733
1186.6169	 62.6963
1187.0990	 62.8271
1187.5812	 62.9566
1188.0634	 63.0652
1188.5455	 63.1525
1189.0277	 63.2409
1189.5099	 63.3336
1189.9921	 63.4635
1190.4742	 63.5991
1190.9564	 63.6903
1191.4386	 63.7834
1191.9207	 63.8798
1192.4029	 63.9705
1192.8851	 64.0930
1193.3672	 64.2201
1193.8494	 64.3086
1194.3316	 64.3959
1194.8137	 64.5117
1195.2959	 64.6180
1195.7781	 64.7027
1196.2602	 64.7976
1196.7424	 64.9183
1197.2246	 65.0278
1197.7068	 65.1118
1198.1889	 65.1993
1198.6711	 65.3101
1199.1533	 65.4416
1199.6354	 65.5463
1200.1176	 65.6366
1200.5998	 65.7322
1201.0819	 65.8111
1201.5641	 65.9100
1202.0463	 66.0187
1202.5284	 66.1004
1203.0106	 66.1857
1203.4928	 66.2889
1203.9749	 66.3890
1204.4571	 66.4952
1204.9393	 66.6152
1205.4214	 66.7153
1205.9036	 66.8026
1206.3858	 66.9136
1206.8680	 67.0210
1207.3501	 67.0933
1207.8323	 67.1637
1208.3145	 67.2565
1208.7966	 67.3542
1209.2788	 67.4559
1209.7610	 67.5595
1210.2431	 67.6456
1210.7253	 67.7342
1211.2075	 67.8302
1211.6896	 67.9187
1212.1718	 68.0067
1212.6540	 68.0974
1213.1361	 68.1905
1213.6183	 68.2791
1214.1005	 68.3524
1214.5827	 68.4354
1215.0648	 68.5406
1215.5470	 68.6368
1216.0292	 68.7293
1216.5113	 68.8332
1216.9935	 68.9151
1217.4757	 68.9795
1217.9578	 69.0620
1218.4400	 69.1437
1218.9222	 69.2386
1219.4043	 69.3511
1219.8865	 69.4282
1220.3687	 69.4833
1220.8508	 69.5519
1221.3330	 69.6361
1221.8152	 69.7205
1222.2973	 69.7931
1222.7795	 69.8837
1223.2617	 69.9851
1223.7439	 70.0738
1224.2260	 70.1530
1224.7082	 70.2240
1225.1904	 70.3087
1225.6725	 70.3873
1226.1547	 70.4355
1226.6369	 70.4943
1227.1190	 70.5861
1227.6012	 70.6868
1228.0834	 70.7788
1228.5655	 70.8647
1229.0477	 70.9518
1229.5299	 71.0473
1230.0120	 71.1370
1230.4942	 71.1888
1230.9764	 71.2327
1231.4586	 71.3067
1231.9407	 71.3957
1232.4229	 71.4893
1232.9051	 71.5740
1233.3872	 71.6519
1233.8694	 71.7267
1234.3516	 71.8053
1234.8337	 71.8873
1235.3159	 71.9456
1235.7981	 72.0070
1236.2802	 72.0940
1236.7624	 72.1656
1237.2446	 72.2209
1237.7267	 72.2791
1238.2089	 72.3574
1238.6911	 72.4642
1239.1732	 72.5562
1239.6554	 72.6226
1240.1376	 72.6769
1240.6198	 72.7440
1241.1019	 72.8284
1241.5841	 72.8891
1242.0663	 72.9470
1242.5484	 73.0250
1243.0306	 73.1058
1243.5128	 73.1791
1243.9949	 73.2487
1244.4771	 73.3368
1244.9593	 73.4181
1245.4414	 73.4704
1245.9236	 73.5344
1246.4058	 73.6087
1246.8879	 73.6684
1247.3701	 73.7392
1247.8523	 73.8289
1248.3345	 73.8918
1248.8166	 73.9414
1249.2988	 74.0118
1249.7810	 74.0837
1250.2631	 74.1702
1250.7453	 74.2553
1251.2275	 74.3069
1251.7096	 74.3479
1252.1918	 74.4098
1252.6740	 74.4854
1253.1561	 74.5550
1253.6383	 74.6196
1254.1205	 74.6703
1254.6026	 74.7128
1255.0848	 74.7628
1255.5670	 74.8320
1256.0491	 74.8885
1256.5313	 74.9202
1257.0135	 74.9883
1257.4957	 75.0617
1257.9778	 75.0959
1258.4600	 75.1230
1258.9422	 75.1753
1259.4243	 75.2552
1259.9065	 75.3493
1260.3887	 75.4271
1260.8708	 75.4526
1261.3530	 75.4753
1261.8352	 75.5423
1262.3173	 75.6316
1262.7995	 75.7073
1263.2817	 75.7763
1263.7638	 75.8615
1264.2460	 75.9452
1264.7282	 76.0167
1265.2104	 76.0769
1265.6925	 76.1328
1266.1747	 76.2206
1266.6569	 76.3282
1267.1390	 76.4027
1267.6212	 76.4589
1268.1034	 76.5316
1268.5855	 76.6094
1269.0677	 76.6660
1269.5499	 76.7204
1270.0320	 76.7949
1270.5142	 76.8593
1270.9964	 76.9093
1271.4785	 76.9594
1271.9607	 77.0037
1272.4429	 77.0598
1272.9250	 77.1152
1273.4072	 77.1645
1273.8894	 77.2280
1274.3716	 77.2922
1274.8537	 77.3546
1275.3359	 77.4118
1275.8181	 77.4618
1276.3002	 77.5154
1276.7824	 77.5698
1277.2646	 77.6273
1277.7467	 77.6896
1278.2289	 77.7547
1278.7111	 77.8199
1279.1932	 77.8635
1279.6754	 77.8953
1280.1576	 77.9486
1280.6397	 78.0180
1281.1219	 78.0855
1281.6041	 78.1461
1282.0863	 78.1985
1282.5684	 78.2447
1283.0506	 78.2943
1283.5328	 78.3432
1284.0149	 78.3920
1284.4971	 78.4392
1284.9793	 78.4737
1285.4614	 78.5178
1285.9436	 78.5700
1286.4258	 78.6077
1286.9079	 78.6495
1287.3901	 78.7152
1287.8723	 78.7898
1288.3544	 78.8459
1288.8366	 78.8853
1289.3188	 78.9406
1289.8009	 79.0041
1290.2831	 79.0393
1290.7653	 79.0762
1291.2475	 79.1384
1291.7296	 79.1929
1292.2118	 79.2425
1292.6940	 79.3001
1293.1761	 79.3455
1293.6583	 79.3842
1294.1405	 79.4272
1294.6226	 79.4625
1295.1048	 79.4989
1295.5870	 79.5455
1296.0691	 79.6012
1296.5513	 79.6532
1297.0335	 79.6880
1297.5156	 79.7310
1297.9978	 79.7783
1298.4800	 79.8202
1298.9622	 79.8719
1299.4443	 79.9149
1299.9265	 79.9404
1300.4087	 79.9679
1300.8908	 80.0155
1301.3730	 80.0771
1301.8552	 80.1231
1302.3373	 80.1627
1302.8195	 80.2132
1303.3017	 80.2621
1303.7838	 80.3036
1304.2660	 80.3309
1304.7482	 80.3674
1305.2303	 80.4195
1305.7125	 80.4577
1306.1947	 80.4924
1306.6768	 80.5463
1307.1590	 80.6027
1307.6412	 80.6423
1308.1234	 80.6854
1308.6055	 80.7279
1309.0877	 80.7459
1309.5699	 80.7657
1310.0520	 80.8173
1310.5342	 80.8702
1311.0164	 80.9136
1311.4985	 80.9620
1311.9807	 81.0054
1312.4629	 81.0443
1312.9450	 81.0726
1313.4272	 81.1135
1313.9094	 81.1665
1314.3915	 81.1961
1314.8737	 81.2228
1315.3559	 81.2575
1315.8381	 81.2803
1316.3202	 81.3080
1316.8024	 81.3624
1317.2846	 81.4064
1317.7667	 81.4280
1318.2489	 81.4604
1318.7311	 81.5155
1319.2132	 81.5495
1319.6954	 81.5495
1320.1776	 81.5686
1320.6597	 81.6103
1321.1419	 81.6494
1321.6241	 81.6598
1322.1062	 81.6639
1322.5884	 81.6914
1323.0706	 81.7154
1323.5527	 81.7372
1324.0349	 81.7691
1324.5171	 81.7944
1324.9993	 81.8190
1325.4814	 81.8545
1325.9636	 81.8903
1326.4458	 81.9282
1326.9279	 81.9714
1327.4101	 82.0291
1327.8923	 82.0872
1328.3744	 82.1216
1328.8566	 82.1678
1329.3388	 82.2400
1329.8209	 82.2989
1330.3031	 82.3385
1330.7853	 82.3764
1331.2674	 82.4094
1331.7496	 82.4440
1332.2318	 82.4923
1332.7140	 82.5363
1333.1961	 82.5616
1333.6783	 82.6004
1334.1605	 82.6476
1334.6426	 82.6718
1335.1248	 82.6872
1335.6070	 82.7062
1336.0891	 82.7478
1336.5713	 82.8262
1337.0535	 82.8624
1337.5356	 82.8516
1338.0178	 82.8771
1338.5000	 82.9368
1338.9821	 82.9881
1339.4643	 83.0248
1339.9465	 83.0863
1340.4286	 83.1501
1340.9108	 83.1169
1341.3930	 83.0715
1341.8752	 83.0811
1342.3573	 83.1026
1342.8395	 83.1407
1343.3217	 83.1919
1343.8038	 83.2267
1344.2860	 83.2578
1344.7682	 83.2780
1345.2503	 83.2968
1345.7325	 83.3238
1346.2147	 83.3537
1346.6968	 83.3783
1347.1790	 83.3929
1347.6612	 83.4148
1348.1433	 83.4413
1348.6255	 83.4701
1349.1077	 83.5113
1349.5899	 83.5485
1350.0720	 83.5597
1350.5542	 83.5745
1351.0364	 83.6059
1351.5185	 83.6331
1352.0007	 83.6572
1352.4829	 83.6754
1352.9650	 83.6966
1353.4472	 83.7195
1353.9294	 83.7441
1354.4115	 83.7944
1354.8937	 83.8360
1355.3759	 83.8522
1355.8580	 83.8708
1356.3402	 83.8809
1356.8224	 83.8959
1357.3046	 83.9244
1357.7867	 83.9513
1358.2689	 83.9704
1358.7511	 83.9920
1359.2332	 84.0210
1359.7154	 84.0377
1360.1976	 84.0511
1360.6797	 84.1125
1361.1619	 84.2029
1361.6441	 84.1839
1362.1262	 84.1445
1362.6084	 84.2182
1363.0906	 84.3768
1363.5727	 84.3582
1364.0549	 84.2604
1364.5371	 84.2271
1365.0192	 84.2396
1365.5014	 84.2809
1365.9836	 84.3112
1366.4658	 84.3242
1366.9479	 84.3449
1367.4301	 84.3623
1367.9123	 84.3858
1368.3944	 84.4349
1368.8766	 84.4652
1369.3588	 84.4583
1369.8409	 84.4591
1370.3231	 84.4760
1370.8053	 84.4816
1371.2874	 84.4792
1371.7696	 84.5097
1372.2518	 84.5537
1372.7339	 84.5628
1373.2161	 84.6011
1373.6983	 84.7160
1374.1805	 84.6999
1374.6626	 84.6588
1375.1448	 84.7035
1375.6270	 84.6936
1376.1091	 84.6657
1376.5913	 84.6720
1377.0735	 84.6911
1377.5556	 84.7392
1378.0378	 84.7986
1378.5200	 84.8160
1379.0021	 84.8242
1379.4843	 84.8426
1379.9665	 84.8605
1380.4486	 84.8870
1380.9308	 84.9107
1381.4130	 84.9218
1381.8951	 84.9352
1382.3773	 84.9564
1382.8595	 84.9587
1383.3417	 84.9631
1383.8238	 84.9916
1384.3060	 85.0138
1384.7882	 85.0485
1385.2703	 85.0929
1385.7525	 85.1103
1386.2347	 85.1498
1386.7168	 85.1944
1387.1990	 85.2700
1387.6812	 85.3710
1388.1633	 85.3085
1388.6455	 85.2532
1389.1277	 85.2476
1389.6098	 85.2606
1390.0920	 85.2963
1390.5742	 85.3219
1391.0564	 85.3252
1391.5385	 85.3297
1392.0207	 85.3540
1392.5029	 85.3682
1392.9850	 85.3677
1393.4672	 85.3722
1393.9494	 85.4340
1394.4315	 85.6175
1394.9137	 85.6012
1395.3959	 85.5411
1395.8780	 85.5907
1396.3602	 85.5734
1396.8424	 85.5375
1397.3245	 85.5887
1397.8067	 85.6412
1398.2889	 85.5865
1398.7710	 85.6032
1399.2532	 85.7570
1399.7354	 85.7149
1400.2176	 85.6381
1400.6997	 85.6418
1401.1819	 85.6607
1401.6641	 85.6683
1402.1462	 85.6875
1402.6284	 85.7034
1403.1106	 85.7074
1403.5927	 85.7170
1404.0749	 85.7183
1404.5571	 85.7785
1405.0392	 85.9119
1405.5214	 85.9009
1406.0036	 85.8565
1406.4857	 85.8384
1406.9679	 85.8138
1407.4501	 85.8261
1407.9323	 85.8625
1408.4144	 85.8856
1408.8966	 85.8864
1409.3788	 85.9017
1409.8609	 85.9429
1410.3431	 85.9414
1410.8253	 85.9284
1411.3074	 85.9730
1411.7896	 86.0194
1412.2718	 86.0139
1412.7539	 86.0080
1413.2361	 86.0223
1413.7183	 86.0397
1414.2004	 86.0536
1414.6826	 86.0584
1415.1648	 86.0641
1415.6469	 86.1023
1416.1291	 86.1497
1416.6113	 86.1499
1417.0935	 86.2010
1417.5756	 86.2728
1418.0578	 86.2231
1418.5400	 86.2007
1419.0221	 86.3793
1419.5043	 86.6676
1419.9865	 86.4472
1420.4686	 86.3010
1420.9508	 86.2739
1421.4330	 86.2834
1421.9151	 86.2978
1422.3973	 86.3175
1422.8795	 86.3281
1423.3616	 86.3812
1423.8438	 86.5168
1424.3260	 86.5350
1424.8082	 86.4394
1425.2903	 86.3893
1425.7725	 86.3884
1426.2547	 86.4071
1426.7368	 86.4311
1427.2190	 86.4325
1427.7012	 86.4332
1428.1833	 86.4732
1428.6655	 86.5005
1429.1477	 86.4978
1429.6298	 86.5803
1430.1120	 86.6769
1430.5942	 86.6033
1431.0763	 86.5346
1431.5585	 86.5372
1432.0407	 86.5775
1432.5228	 86.6087
1433.0050	 86.6368
1433.4872	 86.6436
1433.9694	 86.6254
1434.4515	 86.6140
1434.9337	 86.6092
1435.4159	 86.6451
1435.8980	 86.6979
1436.3802	 86.8658
1436.8624	 87.2299
1437.3445	 86.9538
1437.8267	 86.7610
1438.3089	 86.7239
1438.7910	 86.7526
1439.2732	 86.7653
1439.7554	 86.7613
1440.2375	 86.7589
1440.7197	 86.7669
1441.2019	 86.7846
1441.6841	 86.8047
1442.1662	 86.8233
1442.6484	 86.8355
1443.1306	 86.8427
1443.6127	 86.8442
1444.0949	 86.8510
1444.5771	 86.8715
1445.0592	 86.8877
1445.5414	 86.8842
1446.0236	 86.8779
1446.5057	 86.9046
1446.9879	 86.9336
1447.4701	 86.9909
1447.9522	 87.1309
1448.4344	 87.0950
1448.9166	 86.9933
1449.3987	 86.9597
1449.8809	 86.9665
1450.3631	 86.9805
1450.8453	 86.9845
1451.3274	 86.9884
1451.8096	 87.0380
1452.2918	 87.0778
1452.7739	 87.0515
1453.2561	 87.0311
1453.7383	 87.0304
1454.2204	 87.0457
1454.7026	 87.0860
1455.1848	 87.1717
1455.6669	 87.2045
1456.1491	 87.1838
1456.6313	 87.5067
1457.1134	 87.6534
1457.5956	 87.3584
1458.0778	 87.3103
1458.5600	 87.3633
1459.0421	 87.3410
1459.5243	 87.2907
1460.0065	 87.2004
1460.4886	 87.1588
1460.9708	 87.1617
1461.4530	 87.1577
1461.9351	 87.1551
1462.4173	 87.1693
1462.8995	 87.1863
1463.3816	 87.1869
1463.8638	 87.1918
1464.3460	 87.2479
1464.8281	 87.4710
1465.3103	 87.4667
1465.7925	 87.3264
1466.2746	 87.2762
1466.7568	 87.2620
1467.2390	 87.2661
1467.7212	 87.2798
1468.2033	 87.2914
1468.6855	 87.3104
1469.1677	 87.3281
1469.6498	 87.3415
1470.1320	 87.3540
1470.6142	 87.3781
1471.0963	 87.4282
1471.5785	 87.5539
1472.0607	 87.7936
1472.5428	 87.7158
1473.0250	 87.6611
1473.5072	 87.8214
1473.9893	 87.7426
1474.4715	 87.6033
1474.9537	 87.5733
1475.4359	 87.5670
1475.9180	 87.6782
1476.4002	 87.8947
1476.8824	 87.7660
1477.3645	 87.6553
1477.8467	 87.6559
1478.3289	 87.6624
1478.8110	 87.6663
1479.2932	 87.6769
1479.7754	 87.6662
1480.2575	 87.6550
1480.7397	 87.6920
1481.2219	 87.7845
1481.7040	 87.8113
1482.1862	 87.7818
1482.6684	 87.7750
1483.1505	 87.7789
1483.6327	 87.7904
1484.1149	 87.8045
1484.5971	 87.8157
1485.0792	 87.8264
1485.5614	 87.8408
1486.0436	 87.8707
1486.5257	 87.8938
1487.0079	 87.9598
1487.4901	 88.0563
1487.9722	 87.9781
1488.4544	 87.9145
1488.9366	 87.9694
1489.4187	 88.1222
1489.9009	 88.2019
1490.3831	 88.1808
1490.8652	 88.2130
1491.3474	 88.1184
1491.8296	 87.9975
1492.3118	 87.9701
1492.7939	 87.9836
1493.2761	 88.0031
1493.7583	 88.0184
1494.2404	 88.0243
1494.7226	 88.0250
1495.2048	 88.0374
1495.6869	 88.1102
1496.1691	 88.4083
1496.6513	 88.4172
1497.1334	 88.2147
1497.6156	 88.1175
1498.0978	 88.1002
1498.5799	 88.2486
1499.0621	 88.3744
1499.5443	 88.2255
1500.0264	 88.1368
1500.5086	 88.1096
1500.9908	 88.1063
1501.4730	 88.1550
1501.9551	 88.1992
1502.4373	 88.1696
1502.9195	 88.1397
1503.4016	 88.1489
1503.8838	 88.1668
1504.3660	 88.1877
1504.8481	 88.2351
1505.3303	 88.4713
1505.8125	 88.7927
1506.2946	 88.6674
1506.7768	 88.8158
1507.2590	 88.9639
1507.7411	 88.6183
1508.2233	 88.4933
1508.7055	 88.4372
1509.1877	 88.3655
1509.6698	 88.3900
1510.1520	 88.3583
1510.6342	 88.2946
1511.1163	 88.2823
1511.5985	 88.2776
1512.0807	 88.3868
1512.5628	 88.4486
1513.0450	 88.3160
1513.5272	 88.2584
1514.0093	 88.2653
1514.4915	 88.2995
1514.9737	 88.3989
1515.4558	 88.3814
1515.9380	 88.3418
1516.4202	 88.4359
1516.9023	 88.5426
1517.3845	 88.6477
1517.8667	 88.5648
1518.3489	 88.3900
1518.8310	 88.3195
1519.3132	 88.3076
1519.7954	 88.3715
1520.2775	 88.5132
1520.7597	 88.5533
1521.2419	 88.7230
1521.7240	 88.6359
1522.2062	 88.5204
1522.6884	 88.5937
1523.1705	 88.5113
1523.6527	 88.3765
1524.1349	 88.3506
1524.6170	 88.3947
1525.0992	 88.5130
1525.5814	 88.6369
1526.0636	 88.4908
1526.5457	 88.3649
1527.0279	 88.4340
1527.5101	 88.5129
1527.9922	 88.4139
1528.4744	 88.4104
1528.9566	 88.4181
1529.4387	 88.3504
1529.9209	 88.3216
1530.4031	 88.3210
1530.8852	 88.3383
1531.3674	 88.4066
1531.8496	 88.4449
1532.3317	 88.3805
1532.8139	 88.3746
1533.2961	 88.5575
1533.7783	 88.7462
1534.2604	 88.5742
1534.7426	 88.3943
1535.2248	 88.3504
1535.7069	 88.3491
1536.1891	 88.3167
1536.6713	 88.2995
1537.1534	 88.2958
1537.6356	 88.3021
1538.1178	 88.3502
1538.5999	 88.4952
1539.0821	 88.8621
1539.5643	 88.8176
1540.0464	 88.8095
1540.5286	 88.7699
1541.0108	 88.5108
1541.4929	 88.3878
1541.9751	 88.6670
1542.4573	 88.7021
1542.9395	 88.5015
1543.4216	 88.4799
1543.9038	 88.4537
1544.3860	 88.4073
1544.8681	 88.5476
1545.3503	 88.6979
1545.8325	 88.5023
1546.3146	 88.3585
1546.7968	 88.3241
1547.2790	 88.3091
1547.7611	 88.2866
1548.2433	 88.2854
1548.7255	 88.3048
1549.2076	 88.3498
1549.6898	 88.4690
1550.1720	 88.5685
1550.6542	 88.4674
1551.1363	 88.3638
1551.6185	 88.3507
1552.1007	 88.3588
1552.5828	 88.3457
1553.0650	 88.3358
1553.5472	 88.3420
1554.0293	 88.5035
1554.5115	 88.7579
1554.9937	 88.5843
1555.4758	 88.4431
1555.9580	 88.3967
1556.4402	 88.3804
1556.9223	 88.3805
1557.4045	 88.5673
1557.8867	 88.9285
1558.3688	 89.0399
1558.8510	 88.8972
1559.3332	 88.7385
1559.8154	 89.0058
1560.2975	 89.1425
1560.7797	 88.6754
1561.2619	 88.4610
1561.7440	 88.3732
1562.2262	 88.3502
1562.7084	 88.3427
1563.1905	 88.3310
1563.6727	 88.3192
1564.1549	 88.3153
1564.6370	 88.4003
1565.1192	 88.4635
1565.6014	 88.3729
1566.0835	 88.3037
1566.5657	 88.2805
1567.0479	 88.2766
1567.5301	 88.2803
1568.0122	 88.2842
1568.4944	 88.3291
1568.9766	 88.4283
1569.4587	 88.5755
1569.9409	 88.6246
1570.4231	 88.4384
1570.9052	 88.3099
1571.3874	 88.2672
1571.8696	 88.2437
1572.3517	 88.2275
1572.8339	 88.2186
1573.3161	 88.2109
1573.7982	 88.2124
1574.2804	 88.2068
1574.7626	 88.1954
1575.2447	 88.1981
1575.7269	 88.3095
1576.2091	 88.7749
1576.6913	 88.5703
1577.1734	 88.3342
1577.6556	 88.2327
1578.1378	 88.1734
1578.6199	 88.1320
1579.1021	 88.1146
1579.5843	 88.1086
1580.0664	 88.1089
1580.5486	 88.1046
1581.0308	 88.0947
1581.5129	 88.0884
1581.9951	 88.0928
1582.4773	 88.0900
1582.9594	 88.0700
1583.4416	 88.0583
1583.9238	 88.0580
1584.4060	 88.0581
1584.8881	 88.0496
1585.3703	 88.0376
1585.8525	 88.0320
1586.3346	 88.0252
1586.8168	 88.0290
1587.2990	 88.0304
1587.7811	 88.0055
1588.2633	 87.9757
1588.7455	 87.9614
1589.2276	 87.9599
1589.7098	 87.9556
1590.1920	 87.9454
1590.6741	 87.9416
1591.1563	 87.9340
1591.6385	 87.9116
1592.1206	 87.8805
1592.6028	 87.8627
1593.0850	 87.8654
1593.5672	 87.8538
1594.0493	 87.8520
1594.5315	 87.8686
1595.0137	 87.8404
1595.4958	 87.7986
1595.9780	 87.7808
1596.4602	 87.7603
1596.9423	 87.7316
1597.4245	 87.7123
1597.9067	 87.6851
1598.3888	 87.6551
1598.8710	 87.6430
1599.3532	 87.6192
1599.8353	 87.5770
1600.3175	 87.5416
1600.7997	 87.5289
1601.2819	 87.5319
1601.7640	 87.5150
1602.2462	 87.4730
1602.7284	 87.4485
1603.2105	 87.4475
1603.6927	 87.4172
1604.1749	 87.3754
1604.6570	 87.3400
1605.1392	 87.3077
1605.6214	 87.2860
1606.1035	 87.2531
1606.5857	 87.2236
1607.0679	 87.2255
1607.5500	 87.2043
1608.0322	 87.1422
1608.5144	 87.0870
1608.9965	 87.0766
1609.4787	 87.0816
1609.9609	 87.0168
1610.4431	 86.9459
1610.9252	 86.9072
1611.4074	 86.8671
1611.8896	 86.8346
1612.3717	 86.7989
1612.8539	 86.7592
1613.3361	 86.7261
1613.8182	 86.6752
1614.3004	 86.6260
1614.7826	 86.5966
1615.2647	 86.5754
1615.7469	 86.5390
1616.2291	 86.5551
1616.7112	 86.9548
1617.1934	 86.8197
1617.6756	 86.5218
1618.1578	 86.3704
1618.6399	 86.2864
1619.1221	 86.2241
1619.6043	 86.1932
1620.0864	 86.1700
1620.5686	 86.1384
1621.0508	 86.1201
1621.5329	 86.0949
1622.0151	 86.0663
1622.4973	 86.0730
1622.9794	 86.0971
1623.4616	 86.2578
1623.9438	 86.2422
1624.4259	 86.0379
1624.9081	 85.9298
1625.3903	 85.9032
1625.8724	 85.8914
1626.3546	 85.8763
1626.8368	 85.8304
1627.3190	 85.8307
1627.8011	 85.9882
1628.2833	 85.9733
1628.7655	 85.8566
1629.2476	 85.8220
1629.7298	 85.8148
1630.2120	 85.8071
1630.6941	 85.7912
1631.1763	 85.7701
1631.6585	 85.7649
1632.1406	 85.7652
1632.6228	 85.7551
1633.1050	 85.7442
1633.5871	 85.7276
1634.0693	 85.7112
1634.5515	 85.7386
1635.0337	 85.9254
1635.5158	 86.3970
1635.9980	 86.2276
1636.4802	 85.9613
1636.9623	 85.8522
1637.4445	 85.9542
1637.9267	 85.9683
1638.4088	 85.8665
1638.8910	 85.8487
1639.3732	 85.8531
1639.8553	 85.8541
1640.3375	 85.8881
1640.8197	 85.9082
1641.3018	 85.9052
1641.7840	 85.9219
1642.2662	 85.9618
1642.7483	 85.9850
1643.2305	 86.0063
1643.7127	 86.0446
1644.1949	 86.0864
1644.6770	 86.1134
1645.1592	 86.1035
1645.6414	 86.2750
1646.1235	 86.7035
1646.6057	 86.5017
1647.0879	 86.3958
1647.5700	 86.5017
1648.0522	 86.5770
1648.5344	 86.5778
1649.0165	 86.4935
1649.4987	 86.4663
1649.9809	 86.5048
1650.4630	 86.5279
1650.9452	 86.5429
1651.4274	 86.5478
1651.9096	 86.6157
1652.3917	 87.0763
1652.8739	 87.8373
1653.3561	 87.4598
1653.8382	 87.2153
1654.3204	 87.2164
1654.8026	 87.1655
1655.2847	 86.9898
1655.7669	 86.9159
1656.2491	 86.9278
1656.7312	 86.9575
1657.2134	 86.9855
1657.6956	 87.0093
1658.1777	 87.0371
1658.6599	 87.0669
1659.1421	 87.0906
1659.6242	 87.1125
1660.1064	 87.1395
1660.5886	 87.1716
1661.0708	 87.2305
1661.5529	 87.2875
1662.0351	 87.2811
1662.5173	 87.4048
1662.9994	 87.6400
1663.4816	 87.5083
1663.9638	 87.4021
1664.4459	 87.4051
1664.9281	 87.4337
1665.4103	 87.4568
1665.8924	 87.4845
1666.3746	 87.5151
1666.8568	 87.5457
1667.3389	 87.5718
1667.8211	 87.6340
1668.3033	 87.6933
1668.7855	 87.6952
1669.2676	 87.9448
1669.7498	 88.0053
1670.2320	 87.8192
1670.7141	 87.7397
1671.1963	 87.8305
1671.6785	 87.9695
1672.1606	 87.8849
1672.6428	 87.8056
1673.1250	 87.7914
1673.6071	 87.7976
1674.0893	 87.8066
1674.5715	 87.8209
1675.0536	 88.0770
1675.5358	 88.3895
1676.0180	 88.1073
1676.5001	 87.9496
1676.9823	 87.9211
1677.4645	 87.9344
1677.9467	 87.9414
1678.4288	 87.9348
1678.9110	 87.9326
1679.3932	 87.9555
1679.8753	 88.0335
1680.3575	 88.1114
1680.8397	 88.0858
1681.3218	 88.0398
1681.8040	 88.0277
1682.2862	 88.0137
1682.7683	 88.0585
1683.2505	 88.2804
1683.7327	 88.4262
1684.2148	 88.4749
1684.6970	 88.7731
1685.1792	 88.5719
1685.6614	 88.2430
1686.1435	 88.0807
1686.6257	 88.0351
1687.1079	 88.0092
1687.5900	 87.9986
1688.0722	 88.0652
1688.5544	 88.1059
1689.0365	 88.0135
1689.5187	 87.9643
1690.0009	 88.0455
1690.4830	 88.0757
1690.9652	 88.0050
1691.4474	 87.9457
1691.9295	 87.9087
1692.4117	 87.8977
1692.8939	 87.9037
1693.3760	 87.9152
1693.8582	 87.9285
1694.3404	 87.9359
1694.8226	 87.9431
1695.3047	 88.0408
1695.7869	 88.5981
1696.2691	 88.3764
1696.7512	 88.0825
1697.2334	 87.9798
1697.7156	 87.9712
1698.1977	 87.9147
1698.6799	 87.8627
1699.1621	 87.8656
1699.6442	 88.0189
1700.1264	 88.8131
1700.6086	 88.9910
1701.0907	 88.3180
1701.5729	 87.9637
1702.0551	 87.7941
1702.5373	 87.7560
1703.0194	 87.7599
1703.5016	 87.7268
1703.9838	 87.7389
1704.4659	 87.8720
1704.9481	 87.8150
1705.4303	 87.6919
1705.9124	 87.7322
1706.3946	 87.9166
1706.8768	 87.8626
1707.3589	 87.7317
1707.8411	 87.6496
1708.3233	 87.6083
1708.8054	 87.6116
1709.2876	 87.6252
1709.7698	 87.6664
1710.2520	 87.7222
1710.7341	 87.6854
1711.2163	 87.6368
1711.6985	 87.6273
1712.1806	 87.6320
1712.6628	 87.6480
1713.1450	 87.6350
1713.6271	 87.6673
1714.1093	 87.7655
1714.5915	 87.7853
1715.0736	 87.9067
1715.5558	 87.9553
1716.0380	 87.8266
1716.5201	 87.7514
1717.0023	 87.8430
1717.4845	 88.2236
1717.9666	 88.1578
1718.4488	 88.1563
1718.9310	 88.1668
1719.4132	 87.9508
1719.8953	 87.8409
1720.3775	 87.8278
1720.8597	 87.8255
1721.3418	 87.8422
1721.8240	 87.8574
1722.3062	 87.8568
1722.7883	 87.8780
1723.2705	 87.9563
1723.7527	 87.9982
1724.2348	 87.9609
1724.7170	 87.9373
1725.1992	 87.9333
1725.6813	 87.9492
1726.1635	 87.9854
1726.6457	 88.0118
1727.1279	 88.0210
1727.6100	 88.0213
1728.0922	 88.0230
1728.5744	 88.0390
1729.0565	 88.0451
1729.5387	 88.1043
1730.0209	 88.2768
1730.5030	 88.2700
1730.9852	 88.1676
1731.4674	 88.1383
1731.9495	 88.1762
1732.4317	 88.1859
1732.9139	 88.2172
1733.3960	 88.4751
1733.8782	 88.5319
1734.3604	 88.5748
1734.8425	 88.6633
1735.3247	 88.4314
1735.8069	 88.2930
1736.2891	 88.2548
1736.7712	 88.2494
1737.2534	 88.2713
1737.7356	 88.3057
1738.2177	 88.3204
1738.6999	 88.3124
1739.1821	 88.3254
1739.6642	 88.5301
1740.1464	 88.6026
1740.6286	 88.4374
1741.1107	 88.3742
1741.5929	 88.3646
1742.0751	 88.3509
1742.5572	 88.3829
1743.0394	 88.5156
1743.5216	 88.5926
1744.0038	 88.5357
1744.4859	 88.5139
1744.9681	 88.5082
1745.4503	 88.5037
1745.9324	 88.5327
1746.4146	 88.5551
1746.8968	 88.6131
1747.3789	 88.6686
1747.8611	 88.6629
1748.3433	 88.7538
1748.8254	 88.8860
1749.3076	 88.8519
1749.7898	 88.7734
1750.2719	 88.7027
1750.7541	 88.7464
1751.2363	 89.0973
1751.7184	 89.0687
1752.2006	 88.8761
1752.6828	 88.8254
1753.1650	 88.8301
1753.6471	 88.8229
1754.1293	 88.8340
1754.6115	 88.8574
1755.0936	 88.8802
1755.5758	 88.8793
1756.0580	 88.8686
1756.5401	 88.9803
1757.0223	 89.1161
1757.5045	 89.0314
1757.9866	 88.9640
1758.4688	 88.9612
1758.9510	 88.9589
1759.4331	 88.9624
1759.9153	 88.9750
1760.3975	 88.9850
1760.8797	 88.9892
1761.3618	 89.0669
1761.8440	 89.2715
1762.3262	 89.1775
1762.8083	 89.0335
1763.2905	 89.0015
1763.7727	 88.9936
1764.2548	 88.9838
1764.7370	 88.9870
1765.2192	 88.9849
1765.7013	 88.9790
1766.1835	 88.9844
1766.6657	 88.9868
1767.1478	 88.9689
1767.6300	 89.0179
1768.1122	 89.2113
1768.5943	 89.1660
1769.0765	 89.0313
1769.5587	 89.0070
1770.0409	 89.0098
1770.5230	 89.0020
1771.0052	 89.1156
1771.4874	 89.2287
1771.9695	 89.1238
1772.4517	 89.2123
1772.9339	 89.3576
1773.4160	 89.1202
1773.8982	 88.9857
1774.3804	 88.9467
1774.8625	 88.9348
1775.3447	 88.9901
1775.8269	 89.0421
1776.3090	 88.9922
1776.7912	 88.9442
1777.2734	 88.9281
1777.7556	 88.9302
1778.2377	 88.9376
1778.7199	 88.9494
1779.2021	 88.9620
1779.6842	 88.9423
1780.1664	 88.9553
1780.6486	 89.0536
1781.1307	 89.0392
1781.6129	 88.9617
1782.0951	 88.9435
1782.5772	 88.9467
1783.0594	 88.9358
1783.5416	 88.9290
1784.0237	 88.9314
1784.5059	 88.9872
1784.9881	 89.0907
1785.4702	 89.0465
1785.9524	 88.9857
1786.4346	 89.0083
1786.9168	 89.0367
1787.3989	 89.0338
1787.8811	 89.0398
1788.3633	 89.0630
1788.8454	 89.0765
1789.3276	 89.0854
1789.8098	 89.0646
1790.2919	 89.0425
1790.7741	 89.1394
1791.2563	 89.2104
1791.7384	 89.1270
1792.2206	 89.1658
1792.7028	 89.3927
1793.1849	 89.2413
1793.6671	 89.0602
1794.1493	 88.9766
1794.6315	 88.9428
1795.1136	 88.9391
1795.5958	 88.9660
1796.0780	 89.0011
1796.5601	 88.9837
1797.0423	 88.9543
1797.5245	 88.9537
1798.0066	 88.9601
1798.4888	 88.9461
1798.9710	 88.9561
1799.4531	 89.0757
1799.9353	 89.1115
1800.4175	 89.0137
1800.8996	 89.0052
1801.3818	 89.0504
1801.8640	 89.0393
1802.3461	 89.0600
1802.8283	 89.0598
1803.3105	 89.0032
1803.7927	 88.9863
1804.2748	 88.9951
1804.7570	 88.9974
1805.2392	 89.0043
1805.7213	 89.0145
1806.2035	 89.0319
1806.6857	 89.0422
1807.1678	 89.0622
1807.6500	 89.1078
1808.1322	 89.1071
1808.6143	 89.0846
1809.0965	 89.0923
1809.5787	 89.0907
1810.0608	 89.1070
1810.5430	 89.2075
1811.0252	 89.2277
1811.5074	 89.1682
1811.9895	 89.1862
1812.4717	 89.2110
1812.9539	 89.1881
1813.4360	 89.1918
1813.9182	 89.2055
1814.4004	 89.2067
1814.8825	 89.2091
1815.3647	 89.2096
1815.8469	 89.2255
1816.3290	 89.2425
1816.8112	 89.2422
1817.2934	 89.2609
1817.7755	 89.2815
1818.2577	 89.2679
1818.7399	 89.2491
1819.2220	 89.2536
1819.7042	 89.2675
1820.1864	 89.2701
1820.6686	 89.2754
1821.1507	 89.2814
1821.6329	 89.2735
1822.1151	 89.2754
1822.5972	 89.2999
1823.0794	 89.2958
1823.5616	 89.2789
1824.0437	 89.2733
1824.5259	 89.2728
1825.0081	 89.4130
1825.4902	 89.5049
1825.9724	 89.3592
1826.4546	 89.2804
1826.9367	 89.2780
1827.4189	 89.2962
1827.9011	 89.3067
1828.3833	 89.2921
1828.8654	 89.3142
1829.3476	 89.3354
1829.8298	 89.4141
1830.3119	 89.5165
1830.7941	 89.4074
1831.2763	 89.3200
1831.7584	 89.3037
1832.2406	 89.2917
1832.7228	 89.2892
1833.2049	 89.3032
1833.6871	 89.3049
1834.1693	 89.2961
1834.6514	 89.3009
1835.1336	 89.3068
1835.6158	 89.3110
1836.0979	 89.3026
1836.5801	 89.2918
1837.0623	 89.3199
1837.5445	 89.3351
1838.0266	 89.3039
1838.5088	 89.2828
1838.9910	 89.2859
1839.4731	 89.2925
1839.9553	 89.2862
1840.4375	 89.2792
1840.9196	 89.2742
1841.4018	 89.2723
1841.8840	 89.3081
1842.3661	 89.3312
1842.8483	 89.2995
1843.3305	 89.2576
1843.8126	 89.3241
1844.2948	 89.6115
1844.7770	 89.5198
1845.2592	 89.3658
1845.7413	 89.3162
1846.2235	 89.2904
1846.7057	 89.2680
1847.1878	 89.2846
1847.6700	 89.3498
1848.1522	 89.3577
1848.6343	 89.3075
1849.1165	 89.2902
1849.5987	 89.2952
1850.0808	 89.2914
1850.5630	 89.2869
1851.0452	 89.2857
1851.5273	 89.2721
1852.0095	 89.2675
1852.4917	 89.2764
1852.9738	 89.2724
1853.4560	 89.2611
1853.9382	 89.2562
1854.4204	 89.2573
1854.9025	 89.2633
1855.3847	 89.2764
1855.8669	 89.2743
1856.3490	 89.2517
1856.8312	 89.2385
1857.3134	 89.2403
1857.7955	 89.2419
1858.2777	 89.2478
1858.7599	 89.2574
1859.2420	 89.2494
1859.7242	 89.2361
1860.2064	 89.2430
1860.6885	 89.2572
1861.1707	 89.2622
1861.6529	 89.2550
1862.1351	 89.2440
1862.6172	 89.2475
1863.0994	 89.2566
1863.5816	 89.2551
1864.0637	 89.2478
1864.5459	 89.2384
1865.0281	 89.2298
1865.5102	 89.2338
1865.9924	 89.2736
1866.4746	 89.3104
1866.9567	 89.2734
1867.4389	 89.2852
1867.9211	 89.3682
1868.4032	 89.3074
1868.8854	 89.2975
1869.3676	 89.4592
1869.8497	 89.3918
1870.3319	 89.2836
1870.8141	 89.2768
1871.2963	 89.2597
1871.7784	 89.2310
1872.2606	 89.2280
1872.7428	 89.2335
1873.2249	 89.2350
1873.7071	 89.2319
1874.1893	 89.2297
1874.6714	 89.2345
1875.1536	 89.2304
1875.6358	 89.2195
1876.1179	 89.2244
1876.6001	 89.2307
1877.0823	 89.2347
1877.5644	 89.2390
1878.0466	 89.2399
1878.5288	 89.2472
1879.0110	 89.2523
1879.4931	 89.2420
1879.9753	 89.2227
1880.4575	 89.2148
1880.9396	 89.2231
1881.4218	 89.2292
1881.9040	 89.2185
1882.3861	 89.2020
1882.8683	 89.1972
1883.3505	 89.2012
1883.8326	 89.2091
1884.3148	 89.2177
1884.7970	 89.2184
1885.2791	 89.2209
1885.7613	 89.2279
1886.2435	 89.2185
1886.7257	 89.2097
1887.2078	 89.2289
1887.6900	 89.2392
1888.1722	 89.2168
1888.6543	 89.1866
1889.1365	 89.2351
1889.6187	 89.3648
1890.1008	 89.3172
1890.5830	 89.2176
1891.0652	 89.1965
1891.5473	 89.1966
1892.0295	 89.2008
1892.5117	 89.2124
1892.9938	 89.2014
1893.4760	 89.1832
1893.9582	 89.1923
1894.4403	 89.2030
1894.9225	 89.2404
1895.4047	 89.2713
1895.8869	 89.2349
1896.3690	 89.1984
1896.8512	 89.1883
1897.3334	 89.1890
1897.8155	 89.1814
1898.2977	 89.1768
1898.7799	 89.1811
1899.2620	 89.1912
1899.7442	 89.1968
1900.2264	 89.1827
1900.7085	 89.1749
1901.1907	 89.1805
1901.6729	 89.1744
1902.1550	 89.1690
1902.6372	 89.1875
1903.1194	 89.1852
1903.6016	 89.1641
1904.0837	 89.1747
1904.5659	 89.1914
1905.0481	 89.1827
1905.5302	 89.1746
1906.0124	 89.1843
1906.4946	 89.1863
1906.9767	 89.1718
1907.4589	 89.1682
1907.9411	 89.1890
1908.4232	 89.1985
1908.9054	 89.1805
1909.3876	 89.1779
1909.8697	 89.2024
1910.3519	 89.1967
1910.8341	 89.1741
1911.3162	 89.1627
1911.7984	 89.1397
1912.2806	 89.1424
1912.7628	 89.1768
1913.2449	 89.1835
1913.7271	 89.1744
1914.2093	 89.1749
1914.6914	 89.1697
1915.1736	 89.1657
1915.6558	 89.1748
1916.1379	 89.1812
1916.6201	 89.1690
1917.1023	 89.1353
1917.5844	 89.1712
1918.0666	 89.3004
1918.5488	 89.2491
1919.0309	 89.1544
1919.5131	 89.1480
1919.9953	 89.1542
1920.4775	 89.1432
1920.9596	 89.1387
1921.4418	 89.1417
1921.9240	 89.1636
1922.4061	 89.1854
1922.8883	 89.2047
1923.3705	 89.2108
1923.8526	 89.1682
1924.3348	 89.1407
1924.8170	 89.1372
1925.2991	 89.1327
1925.7813	 89.1356
1926.2635	 89.1372
1926.7456	 89.1380
1927.2278	 89.1400
1927.7100	 89.1377
1928.1921	 89.1302
1928.6743	 89.1254
1929.1565	 89.1185
1929.6387	 89.1068
1930.1208	 89.1133
1930.6030	 89.1282
1931.0852	 89.1349
1931.5673	 89.1390
1932.0495	 89.1244
1932.5317	 89.1041
1933.0138	 89.1089
1933.4960	 89.1224
1933.9782	 89.1165
1934.4603	 89.1054
1934.9425	 89.1008
1935.4247	 89.1050
1935.9068	 89.1258
1936.3890	 89.1367
1936.8712	 89.1279
1937.3534	 89.1216
1937.8355	 89.1239
1938.3177	 89.1281
1938.7999	 89.1338
1939.2820	 89.1335
1939.7642	 89.1310
1940.2464	 89.1305
1940.7285	 89.1123
1941.2107	 89.0968
1941.6929	 89.0872
1942.1750	 89.1266
1942.6572	 89.2161
1943.1394	 89.1782
1943.6215	 89.1060
1944.1037	 89.0789
1944.5859	 89.0775
1945.0680	 89.1076
1945.5502	 89.1221
1946.0324	 89.1108
1946.5146	 89.1131
1946.9967	 89.0938
1947.4789	 89.0627
1947.9611	 89.0683
1948.4432	 89.0753
1948.9254	 89.0694
1949.4076	 89.0802
1949.8897	 89.0984
1950.3719	 89.0994
1950.8541	 89.0878
1951.3362	 89.0815
1951.8184	 89.0772
1952.3006	 89.0808
1952.7827	 89.0859
1953.2649	 89.0675
1953.7471	 89.0533
1954.2293	 89.0684
1954.7114	 89.1013
1955.1936	 89.1214
1955.6758	 89.1009
1956.1579	 89.0699
1956.6401	 89.0621
1957.1223	 89.0789
1957.6044	 89.0888
1958.0866	 89.0766
1958.5688	 89.0620
1959.0509	 89.0592
1959.5331	 89.0704
1960.0153	 89.0664
1960.4974	 89.0538
1960.9796	 89.0634
1961.4618	 89.0681
1961.9439	 89.0581
1962.4261	 89.0535
1962.9083	 89.0465
1963.3905	 89.0478
1963.8726	 89.0596
1964.3548	 89.0521
1964.8370	 89.0353
1965.3191	 89.0325
1965.8013	 89.0522
1966.2835	 89.0669
1966.7656	 89.0578
1967.2478	 89.0786
1967.7300	 89.0917
1968.2121	 89.0573
1968.6943	 89.0361
1969.1765	 89.0405
1969.6586	 89.0590
1970.1408	 89.0675
1970.6230	 89.0494
1971.1052	 89.0421
1971.5873	 89.0496
1972.0695	 89.0503
1972.5517	 89.0495
1973.0338	 89.0434
1973.5160	 89.0361
1973.9982	 89.0368
1974.4803	 89.0426
1974.9625	 89.0482
1975.4447	 89.0440
1975.9268	 89.0247
1976.4090	 89.0117
1976.8912	 89.0153
1977.3733	 89.0261
1977.8555	 89.0305
1978.3377	 89.0220
1978.8198	 89.0138
1979.3020	 89.0111
1979.7842	 89.0182
1980.2664	 89.0285
1980.7485	 89.0257
1981.2307	 89.0161
1981.7129	 89.0117
1982.1950	 89.0117
1982.6772	 89.0128
1983.1594	 89.0082
1983.6415	 88.9999
1984.1237	 88.9976
1984.6059	 88.9958
1985.0880	 88.9958
1985.5702	 89.0076
1986.0524	 89.0117
1986.5345	 89.0012
1987.0167	 88.9977
1987.4989	 88.9960
1987.9811	 88.9989
1988.4632	 89.0163
1988.9454	 89.0209
1989.4276	 89.0068
1989.9097	 88.9947
1990.3919	 88.9881
1990.8741	 88.9689
1991.3562	 88.9834
1991.8384	 89.0559
1992.3206	 89.0635
1992.8027	 89.0243
1993.2849	 89.0122
1993.7671	 88.9982
1994.2492	 88.9845
1994.7314	 88.9897
1995.2136	 88.9915
1995.6957	 88.9782
1996.1779	 88.9724
1996.6601	 88.9695
1997.1423	 88.9636
1997.6244	 88.9684
1998.1066	 88.9714
1998.5888	 88.9751
1999.0709	 88.9807
1999.5531	 88.9765
2000.0353	 88.9779
2000.5174	 88.9738
2000.9996	 88.9650
2001.4818	 88.9657
2001.9639	 88.9656
2002.4461	 88.9616
2002.9283	 88.9486
2003.4104	 88.9413
2003.8926	 88.9394
2004.3748	 88.9472
2004.8570	 88.9562
2005.3391	 88.9379
2005.8213	 88.9269
2006.3035	 88.9389
2006.7856	 88.9433
2007.2678	 88.9422
2007.7500	 88.9505
2008.2321	 88.9536
2008.7143	 88.9441
2009.1965	 88.9365
2009.6786	 88.9305
2010.1608	 88.9304
2010.6430	 88.9413
2011.1251	 88.9436
2011.6073	 88.9376
2012.0895	 88.9366
2012.5716	 88.9383
2013.0538	 88.9350
2013.5360	 88.9299
2014.0182	 88.9338
2014.5003	 88.9388
2014.9825	 88.9293
2015.4647	 88.9158
2015.9468	 88.9169
2016.4290	 88.9435
2016.9112	 88.9730
2017.3933	 88.9561
2017.8755	 88.9335
2018.3577	 88.9333
2018.8398	 88.9281
2019.3220	 88.9189
2019.8042	 88.9066
2020.2863	 88.9002
2020.7685	 88.9125
2021.2507	 88.9124
2021.7329	 88.8953
2022.2150	 88.8932
2022.6972	 88.8981
2023.1794	 88.8993
2023.6615	 88.8984
2024.1437	 88.8963
2024.6259	 88.9066
2025.1080	 88.9111
2025.5902	 88.8944
2026.0724	 88.8863
2026.5545	 88.8904
2027.0367	 88.8894
2027.5189	 88.8837
2028.0010	 88.8808
2028.4832	 88.8855
2028.9654	 88.8867
2029.4475	 88.8843
2029.9297	 88.8902
2030.4119	 88.8977
2030.8941	 88.8934
2031.3762	 88.8892
2031.8584	 88.8875
2032.3406	 88.8762
2032.8227	 88.8710
2033.3049	 88.8695
2033.7871	 88.8711
2034.2692	 88.8772
2034.7514	 88.8750
2035.2336	 88.8744
2035.7157	 88.8715
2036.1979	 88.8693
2036.6801	 88.8689
2037.1622	 88.8625
2037.6444	 88.8639
2038.1266	 88.8685
2038.6088	 88.8685
2039.0909	 88.8619
2039.5731	 88.8500
2040.0553	 88.8440
2040.5374	 88.8433
2041.0196	 88.8539
2041.5018	 88.8622
2041.9839	 88.8583
2042.4661	 88.8617
2042.9483	 88.8586
2043.4304	 88.8528
2043.9126	 88.8605
2044.3948	 88.8634
2044.8769	 88.8550
2045.3591	 88.8462
2045.8413	 88.8482
2046.3234	 88.8503
2046.8056	 88.8424
2047.2878	 88.8274
2047.7700	 88.8137
2048.2521	 88.8274
2048.7343	 88.8471
2049.2165	 88.8322
2049.6986	 88.8173
2050.1808	 88.8201
2050.6630	 88.8145
2051.1451	 88.8156
2051.6273	 88.8194
2052.1095	 88.8229
2052.5916	 88.8354
2053.0738	 88.8309
2053.5560	 88.8121
2054.0381	 88.8140
2054.5203	 88.8265
2055.0025	 88.8103
2055.4847	 88.7973
2055.9668	 88.8110
2056.4490	 88.8111
2056.9312	 88.8130
2057.4133	 88.8261
2057.8955	 88.8164
2058.3777	 88.8120
2058.8598	 88.8199
2059.3420	 88.8012
2059.8242	 88.7883
2060.3063	 88.8072
2060.7885	 88.8094
2061.2707	 88.7952
2061.7528	 88.8029
2062.2350	 88.8122
2062.7172	 88.8073
2063.1993	 88.8015
2063.6815	 88.7891
2064.1637	 88.7807
2064.6459	 88.8024
2065.1280	 88.8090
2065.6102	 88.7897
2066.0924	 88.7928
2066.5745	 88.8006
2067.0567	 88.7982
2067.5389	 88.7900
2068.0210	 88.7752
2068.5032	 88.7750
2068.9854	 88.7909
2069.4675	 88.7981
2069.9497	 88.7973
2070.4319	 88.7985
2070.9140	 88.7978
2071.3962	 88.7861
2071.8784	 88.7756
2072.3606	 88.7731
2072.8427	 88.7643
2073.3249	 88.7685
2073.8071	 88.7837
2074.2892	 88.7827
2074.7714	 88.7813
2075.2536	 88.7794
2075.7357	 88.7792
2076.2179	 88.7639
2076.7001	 88.6788
2077.1822	 88.6113
2077.6644	 88.6436
2078.1466	 88.7017
2078.6287	 88.7358
2079.1109	 88.7588
2079.5931	 88.7806
2080.0753	 88.7850
2080.5574	 88.7782
2081.0396	 88.7764
2081.5218	 88.7646
2082.0039	 88.7540
2082.4861	 88.7513
2082.9683	 88.7533
2083.4504	 88.7726
2083.9326	 88.7740
2084.4148	 88.7528
2084.8969	 88.7647
2085.3791	 88.7826
2085.8613	 88.7478
2086.3434	 88.7177
2086.8256	 88.7416
2087.3078	 88.7608
2087.7899	 88.7554
2088.2721	 88.7494
2088.7543	 88.7514
2089.2365	 88.7659
2089.7186	 88.7715
2090.2008	 88.7418
2090.6830	 88.7215
2091.1651	 88.7379
2091.6473	 88.7516
2092.1295	 88.7580
2092.6116	 88.7547
2093.0938	 88.7467
2093.5760	 88.7428
2094.0581	 88.7251
2094.5403	 88.6992
2095.0225	 88.7072
2095.5046	 88.7440
2095.9868	 88.7637
2096.4690	 88.7642
2096.9512	 88.7578
2097.4333	 88.7544
2097.9155	 88.7534
2098.3977	 88.7344
2098.8798	 88.6980
2099.3620	 88.6997
2099.8442	 88.7282
2100.3263	 88.7304
2100.8085	 88.7295
2101.2907	 88.7354
2101.7728	 88.7452
2102.2550	 88.7457
2102.7372	 88.7010
2103.2193	 88.6657
2103.7015	 88.7063
2104.1837	 88.7504
2104.6658	 88.7458
2105.1480	 88.7432
2105.6302	 88.7602
2106.1124	 88.7609
2106.5945	 88.7315
2107.0767	 88.6858
2107.5589	 88.6769
2108.0410	 88.7133
2108.5232	 88.7298
2109.0054	 88.7299
2109.4875	 88.7383
2109.9697	 88.7428
2110.4519	 88.7313
2110.9340	 88.6936
2111.4162	 88.6538
2111.8984	 88.6780
2112.3805	 88.7257
2112.8627	 88.7347
2113.3449	 88.7313
2113.8271	 88.7288
2114.3092	 88.7385
2114.7914	 88.7253
2115.2736	 88.6760
2115.7557	 88.6769
2116.2379	 88.7141
2116.7201	 88.7108
2117.2022	 88.7126
2117.6844	 88.7337
2118.1666	 88.7347
2118.6487	 88.7310
2119.1309	 88.7008
2119.6131	 88.6741
2120.0952	 88.7020
2120.5774	 88.7124
2121.0596	 88.7034
2121.5417	 88.7172
2122.0239	 88.7251
2122.5061	 88.7194
2122.9883	 88.6918
2123.4704	 88.6578
2123.9526	 88.6694
2124.4348	 88.7059
2124.9169	 88.7204
2125.3991	 88.7171
2125.8813	 88.7165
2126.3634	 88.7252
2126.8456	 88.7199
2127.3278	 88.6853
2127.8099	 88.6676
2128.2921	 88.6905
2128.7743	 88.7053
2129.2564	 88.6959
2129.7386	 88.6975
2130.2208	 88.7107
2130.7030	 88.6931
2131.1851	 88.6480
2131.6673	 88.6437
2132.1495	 88.6719
2132.6316	 88.6863
2133.1138	 88.6979
2133.5960	 88.7063
2134.0781	 88.7091
2134.5603	 88.7048
2135.0425	 88.6862
2135.5246	 88.6762
2136.0068	 88.6878
2136.4890	 88.6964
2136.9711	 88.6994
2137.4533	 88.7031
2137.9355	 88.6905
2138.4176	 88.6712
2138.8998	 88.6638
2139.3820	 88.6706
2139.8642	 88.6930
2140.3463	 88.7024
2140.8285	 88.6885
2141.3107	 88.6866
2141.7928	 88.6939
2142.2750	 88.6913
2142.7572	 88.6893
2143.2393	 88.6936
2143.7215	 88.6899
2144.2037	 88.6779
2144.6858	 88.6815
2145.1680	 88.6899
2145.6502	 88.6843
2146.1323	 88.6890
2146.6145	 88.6921
2147.0967	 88.6785
2147.5789	 88.6784
2148.0610	 88.6839
2148.5432	 88.6840
2149.0254	 88.6912
2149.5075	 88.6973
2149.9897	 88.6870
2150.4719	 88.6580
2150.9540	 88.6503
2151.4362	 88.6622
2151.9184	 88.6630
2152.4005	 88.6727
2152.8827	 88.6807
2153.3649	 88.6752
2153.8470	 88.6554
2154.3292	 88.6294
2154.8114	 88.6422
2155.2935	 88.6785
2155.7757	 88.6756
2156.2579	 88.6497
2156.7401	 88.6507
2157.2222	 88.6647
2157.7044	 88.6478
2158.1866	 88.6167
2158.6687	 88.6232
2159.1509	 88.6494
2159.6331	 88.6593
2160.1152	 88.6692
2160.5974	 88.6857
2161.0796	 88.6721
2161.5617	 88.6162
2162.0439	 88.5911
2162.5261	 88.6291
2163.0082	 88.6546
2163.4904	 88.6523
2163.9726	 88.6523
2164.4548	 88.6443
2164.9369	 88.6177
2165.4191	 88.5884
2165.9013	 88.6068
2166.3834	 88.6495
2166.8656	 88.6668
2167.3478	 88.6703
2167.8299	 88.6622
2168.3121	 88.6397
2168.7943	 88.5909
2169.2764	 88.5647
2169.7586	 88.6072
2170.2408	 88.6501
2170.7229	 88.6637
2171.2051	 88.6702
2171.6873	 88.6534
2172.1694	 88.5948
2172.6516	 88.5507
2173.1338	 88.5901
2173.6160	 88.6564
2174.0981	 88.6787
2174.5803	 88.6649
2175.0625	 88.6487
2175.5446	 88.6180
2176.0268	 88.5598
2176.5090	 88.5713
2176.9911	 88.6407
2177.4733	 88.6563
2177.9555	 88.6420
2178.4376	 88.6474
2178.9198	 88.6355
2179.4020	 88.5799
2179.8841	 88.5734
2180.3663	 88.6328
2180.8485	 88.6559
2181.3307	 88.6494
2181.8128	 88.6416
2182.2950	 88.6218
2182.7772	 88.5890
2183.2593	 88.5654
2183.7415	 88.5881
2184.2237	 88.6282
2184.7058	 88.6463
2185.1880	 88.6476
2185.6702	 88.6303
2186.1523	 88.5832
2186.6345	 88.5625
2187.1167	 88.6085
2187.5988	 88.6413
2188.0810	 88.6425
2188.5632	 88.6502
2189.0453	 88.6446
2189.5275	 88.6061
2190.0097	 88.5722
2190.4919	 88.5947
2190.9740	 88.6214
2191.4562	 88.6168
2191.9384	 88.6250
2192.4205	 88.6368
2192.9027	 88.6173
2193.3849	 88.5959
2193.8670	 88.6153
2194.3492	 88.6368
2194.8314	 88.6393
2195.3135	 88.6468
2195.7957	 88.6425
2196.2779	 88.6145
2196.7600	 88.5980
2197.2422	 88.6164
2197.7244	 88.6397
2198.2066	 88.6400
2198.6887	 88.6298
2199.1709	 88.6230
2199.6531	 88.6200
2200.1352	 88.6206
2200.6174	 88.6177
2201.0996	 88.6199
2201.5817	 88.6391
2202.0639	 88.6445
2202.5461	 88.6219
2203.0282	 88.6033
2203.5104	 88.6144
2203.9926	 88.6264
2204.4747	 88.6152
2204.9569	 88.6144
2205.4391	 88.6273
2205.9212	 88.6205
2206.4034	 88.6051
2206.8856	 88.6067
2207.3678	 88.6177
2207.8499	 88.6295
2208.3321	 88.6342
2208.8143	 88.6308
2209.2964	 88.6320
2209.7786	 88.6305
2210.2608	 88.6264
2210.7429	 88.6297
2211.2251	 88.6306
2211.7073	 88.6317
2212.1894	 88.6287
2212.6716	 88.6156
2213.1538	 88.6110
2213.6359	 88.6191
2214.1181	 88.6218
2214.6003	 88.6232
2215.0825	 88.6243
2215.5646	 88.6163
2216.0468	 88.6292
2216.5290	 88.6373
2217.0111	 88.6185
2217.4933	 88.6147
2217.9755	 88.6203
2218.4576	 88.6105
2218.9398	 88.6036
2219.4220	 88.6131
2219.9041	 88.6218
2220.3863	 88.6280
2220.8685	 88.6266
2221.3506	 88.6094
2221.8328	 88.5905
2222.3150	 88.5998
2222.7971	 88.6172
2223.2793	 88.6054
2223.7615	 88.5877
2224.2437	 88.5916
2224.7258	 88.6134
2225.2080	 88.6164
2225.6902	 88.5973
2226.1723	 88.5840
2226.6545	 88.5755
2227.1367	 88.5802
2227.6188	 88.5885
2228.1010	 88.5696
2228.5832	 88.5527
2229.0653	 88.5836
2229.5475	 88.6245
2230.0297	 88.6081
2230.5118	 88.5577
2230.9940	 88.5500
2231.4762	 88.5711
2231.9584	 88.5734
2232.4405	 88.5465
2232.9227	 88.5255
2233.4049	 88.5481
2233.8870	 88.5728
2234.3692	 88.5504
2234.8514	 88.4927
2235.3335	 88.4881
2235.8157	 88.5449
2236.2979	 88.5581
2236.7800	 88.4753
2237.2622	 88.3990
2237.7444	 88.4477
2238.2265	 88.5261
2238.7087	 88.4729
2239.1909	 88.3460
2239.6730	 88.3638
2240.1552	 88.4775
2240.6374	 88.4609
2241.1196	 88.3012
2241.6017	 88.2532
2242.0839	 88.4052
2242.5661	 88.4672
2243.0482	 88.2828
2243.5304	 88.1304
2244.0126	 88.2734
2244.4947	 88.4305
2244.9769	 88.2754
2245.4591	 88.0218
2245.9412	 88.1027
2246.4234	 88.3571
2246.9056	 88.2626
2247.3877	 87.9105
2247.8699	 87.9144
2248.3521	 88.2467
2248.8343	 88.2386
2249.3164	 87.7932
2249.7986	 87.6617
2250.2808	 88.0834
2250.7629	 88.2179
2251.2451	 87.7097
2251.7273	 87.4342
2252.2094	 87.9019
2252.6916	 88.1551
2253.1738	 87.5884
2253.6559	 87.1931
2254.1381	 87.7150
2254.6203	 88.0604
2255.1024	 87.4160
2255.5846	 86.9509
2256.0668	 87.5740
2256.5490	 88.0001
2257.0311	 87.2410
2257.5133	 86.6738
2257.9955	 87.4185
2258.4776	 87.8846
2258.9598	 86.9809
2259.4420	 86.4478
2259.9241	 87.3655
2260.4063	 87.7472
2260.8885	 86.6474
2261.3706	 86.2465
2261.8528	 87.3614
2262.3350	 87.5386
2262.8171	 86.2548
2263.2993	 86.1583
2263.7815	 87.4134
2264.2636	 87.2206
2264.7458	 85.8631
2265.2280	 86.2439
2265.7102	 87.4930
2266.1923	 86.7773
2266.6745	 85.5623
2267.1567	 86.5115
2267.6388	 87.4233
2268.1210	 86.1987
2268.6032	 85.5549
2269.0853	 86.9402
2269.5675	 87.1301
2270.0497	 85.6783
2270.5318	 85.9355
2271.0140	 87.2653
2271.4962	 86.5549
2271.9783	 85.4636
2272.4605	 86.5609
2272.9427	 87.2215
2273.4249	 85.9603
2273.9070	 85.8402
2274.3892	 87.0828
2274.8714	 86.6692
2275.3535	 85.7032
2275.8357	 86.6030
2276.3179	 87.2048
2276.8000	 86.2174
2277.2822	 86.1836
2277.7644	 87.1623
2278.2465	 86.8622
2278.7287	 86.3357
2279.2109	 87.0015
2279.6930	 87.1773
2280.1752	 86.6996
2280.6574	 87.0793
2281.1395	 87.5782
2281.6217	 87.2621
2282.1039	 87.0699
2282.5861	 87.4847
2283.0682	 87.7790
2283.5504	 87.6985
2284.0326	 87.3162
2284.5147	 87.0354
2284.9969	 87.0770
2285.4791	 86.8351
2285.9612	 86.7378
2286.4434	 86.5267
2286.9256	 85.5822
2287.4077	 85.6063
2287.8899	 86.4110
2288.3721	 85.7135
2288.8542	 84.4888
2289.3364	 84.7595
2289.8186	 84.8631
2290.3008	 84.7901
2290.7829	 85.0079
2291.2651	 83.4081
2291.7473	 82.7873
2292.2294	 84.5473
2292.7116	 84.3284
2293.1938	 82.5831
2293.6759	 81.8673
2294.1581	 81.9129
2294.6403	 83.2619
2295.1224	 83.7094
2295.6046	 80.7885
2296.0868	 79.7143
2296.5689	 82.0021
2297.0511	 82.5566
2297.5333	 81.4445
2298.0154	 78.9899
2298.4976	 78.8773
2298.9798	 82.0724
2299.4620	 81.8424
2299.9441	 78.4985
2300.4263	 76.6525
2300.9085	 78.5651
2301.3906	 81.0865
2301.8728	 79.7876
2302.3550	 75.9597
2302.8371	 76.2909
2303.3193	 79.3054
2303.8015	 79.9660
2304.2836	 76.9953
2304.7658	 73.8342
2305.2480	 76.3590
2305.7301	 78.6801
2306.2123	 76.2247
2306.6945	 70.7972
2307.1767	 71.4905
2307.6588	 76.3890
2308.1410	 75.9748
2308.6232	 69.8317
2309.1053	 66.9838
2309.5875	 72.7567
2310.0697	 75.1393
2310.5518	 70.0181
2311.0340	 64.0403
2311.5162	 68.8443
2311.9983	 73.4765
2312.4805	 70.4209
2312.9627	 63.9077
2313.4448	 66.4748
2313.9270	 71.4453
2314.4092	 70.3260
2314.8913	 65.6649
2315.3735	 65.3626
2315.8557	 68.8478
2316.3379	 69.2139
2316.8200	 65.0442
2317.3022	 61.0317
2317.7844	 64.9275
2318.2665	 67.5001
2318.7487	 62.9609
2319.2309	 55.6770
2319.7130	 61.3713
2320.1952	 65.0042
2320.6774	 58.8657
2321.1595	 50.5595
2321.6417	 59.2920
2322.1239	 62.5154
2322.6060	 55.5515
2323.0882	 50.1085
2323.5704	 58.5694
2324.0526	 59.3285
2324.5347	 53.0897
2325.0169	 51.4361
2325.4991	 57.3639
2325.9812	 57.2874
2326.4634	 52.3497
2326.9456	 49.4026
2327.4277	 53.9833
2327.9099	 55.4907
2328.3921	 50.9529
2328.8742	 47.0488
2329.3564	 52.9377
2329.8386	 54.0617
2330.3207	 46.9561
2330.8029	 47.2533
2331.2851	 53.3929
2331.7672	 51.3628
2332.2494	 44.4739
2332.7316	 50.2943
2333.2138	 53.2059
2333.6959	 48.9885
2334.1781	 45.4783
2334.6603	 52.0643
2335.1424	 53.0920
2335.6246	 47.1514
2336.1068	 44.1346
2336.5889	 49.6985
2337.0711	 49.6023
2337.5533	 44.7324
2338.0354	 48.7953
2338.5176	 51.3801
2338.9998	 46.9828
2339.4819	 44.3005
2339.9641	 49.3253
2340.4463	 47.9751
2340.9285	 42.8326
2341.4106	 46.4203
2341.8928	 48.5449
2342.3750	 45.2316
2342.8571	 43.6728
2343.3393	 48.4676
2343.8215	 48.4171
2344.3036	 44.1413
2344.7858	 48.8313
2345.2680	 50.8318
2345.7501	 47.0281
2346.2323	 51.4152
2346.7145	 56.1057
2347.1966	 54.6001
2347.6788	 55.6511
2348.1610	 61.6770
2348.6431	 65.0041
2349.1253	 63.3013
2349.6075	 56.4207
2350.0897	 53.9931
2350.5718	 56.7963
2351.0540	 53.1111
2351.5362	 48.9468
2352.0183	 51.3681
2352.5005	 48.8938
2352.9827	 44.0223
2353.4648	 46.2571
2353.9470	 46.3826
2354.4292	 42.4228
2354.9113	 43.3998
2355.3935	 42.3633
2355.8757	 38.2063
2356.3578	 39.7119
2356.8400	 38.9474
2357.3222	 35.9598
2357.8044	 38.2460
2358.2865	 38.3791
2358.7687	 36.6349
2359.2509	 37.7946
2359.7330	 36.2232
2360.2152	 35.0608
2360.6974	 37.5846
2361.1795	 37.1154
2361.6617	 37.4814
2362.1439	 38.3697
2362.6260	 36.5438
2363.1082	 37.8165
2363.5904	 38.7682
2364.0725	 38.2661
2364.5547	 40.1663
2365.0369	 39.8178
2365.5190	 40.3687
2366.0012	 42.1673
2366.4834	 41.9034
2366.9656	 43.7722
2367.4477	 44.2348
2367.9299	 44.7088
2368.4121	 46.7852
2368.8942	 46.8991
2369.3764	 48.7939
2369.8586	 49.6777
2370.3407	 50.6219
2370.8229	 52.4752
2371.3051	 52.9836
2371.7872	 54.9887
2372.2694	 55.8174
2372.7516	 57.3495
2373.2337	 58.7660
2373.7159	 59.8647
2374.1981	 61.5098
2374.6803	 62.4846
2375.1624	 64.1009
2375.6446	 65.1632
2376.1268	 66.5386
2376.6089	 67.6866
2377.0911	 68.8770
2377.5733	 70.0397
2378.0554	 71.1119
2378.5376	 72.2958
2379.0198	 73.3572
2379.5019	 74.5168
2379.9841	 75.5737
2380.4663	 76.7148
2380.9484	 77.8187
2381.4306	 78.9520
2381.9128	 80.0481
2382.3949	 81.1286
2382.8771	 82.1433
2383.3593	 83.0933
2383.8415	 83.9502
2384.3236	 84.7275
2384.8058	 85.4158
2385.2880	 86.0094
2385.7701	 86.5234
2386.2523	 86.9389
2386.7345	 87.2747
2387.2166	 87.5587
2387.6988	 87.7938
2388.1810	 87.9671
2388.6631	 88.0830
2389.1453	 88.1725
2389.6275	 88.2700
2390.1096	 88.3335
2390.5918	 88.3637
2391.0740	 88.3926
2391.5562	 88.4138
2392.0383	 88.4419
2392.5205	 88.4625
2393.0027	 88.4509
2393.4848	 88.4394
2393.9670	 88.4394
2394.4492	 88.4469
2394.9313	 88.4553
2395.4135	 88.4539
2395.8957	 88.4543
2396.3778	 88.4654
2396.8600	 88.4770
2397.3422	 88.4845
2397.8243	 88.4819
2398.3065	 88.4701
2398.7887	 88.4664
2399.2708	 88.4653
2399.7530	 88.4418
2400.2352	 88.4306
2400.7174	 88.4477
2401.1995	 88.4471
2401.6817	 88.4409
2402.1639	 88.4470
2402.6460	 88.4579
2403.1282	 88.4611
2403.6104	 88.4496
2404.0925	 88.4580
2404.5747	 88.4743
2405.0569	 88.4730
2405.5390	 88.4684
2406.0212	 88.4601
2406.5034	 88.4485
2406.9855	 88.4439
2407.4677	 88.4465
2407.9499	 88.4556
2408.4321	 88.4654
2408.9142	 88.4657
2409.3964	 88.4616
2409.8786	 88.4632
2410.3607	 88.4609
2410.8429	 88.4550
2411.3251	 88.4577
2411.8072	 88.4623
2412.2894	 88.4599
2412.7716	 88.4566
2413.2537	 88.4593
2413.7359	 88.4643
2414.2181	 88.4677
2414.7002	 88.4548
2415.1824	 88.4367
2415.6646	 88.4422
2416.1467	 88.4526
2416.6289	 88.4505
2417.1111	 88.4371
2417.5933	 88.4289
2418.0754	 88.4389
2418.5576	 88.4393
2419.0398	 88.4262
2419.5219	 88.4278
2420.0041	 88.4380
2420.4863	 88.4287
2420.9684	 88.4200
2421.4506	 88.4261
2421.9328	 88.4272
2422.4149	 88.4333
2422.8971	 88.4438
2423.3793	 88.4387
2423.8614	 88.4324
2424.3436	 88.4411
2424.8258	 88.4380
2425.3080	 88.4300
2425.7901	 88.4384
2426.2723	 88.4454
2426.7545	 88.4511
2427.2366	 88.4553
2427.7188	 88.4478
2428.2010	 88.4363
2428.6831	 88.4281
2429.1653	 88.4151
2429.6475	 88.4132
2430.1296	 88.4344
2430.6118	 88.4373
2431.0940	 88.4174
2431.5761	 88.4086
2432.0583	 88.4227
2432.5405	 88.4333
2433.0227	 88.4205
2433.5048	 88.4202
2433.9870	 88.4267
2434.4692	 88.4181
2434.9513	 88.4132
2435.4335	 88.4097
2435.9157	 88.4018
2436.3978	 88.4020
2436.8800	 88.4148
2437.3622	 88.4218
2437.8443	 88.4095
2438.3265	 88.4003
2438.8087	 88.4058
2439.2908	 88.4098
2439.7730	 88.4046
2440.2552	 88.3975
2440.7373	 88.4028
2441.2195	 88.4118
2441.7017	 88.4148
2442.1839	 88.4167
2442.6660	 88.4100
2443.1482	 88.4019
2443.6304	 88.3955
2444.1125	 88.3901
2444.5947	 88.4036
2445.0769	 88.4203
2445.5590	 88.4163
2446.0412	 88.4059
2446.5234	 88.4046
2447.0055	 88.4057
2447.4877	 88.3932
2447.9699	 88.3727
2448.4520	 88.3742
2448.9342	 88.3923
2449.4164	 88.4003
2449.8986	 88.4003
2450.3807	 88.3959
2450.8629	 88.3876
2451.3451	 88.3911
2451.8272	 88.3969
2452.3094	 88.3763
2452.7916	 88.3577
2453.2737	 88.3760
2453.7559	 88.3940
2454.2381	 88.3873
2454.7202	 88.3877
2455.2024	 88.3880
2455.6846	 88.3743
2456.1667	 88.3790
2456.6489	 88.3887
2457.1311	 88.3818
2457.6132	 88.3796
2458.0954	 88.3753
2458.5776	 88.3809
2459.0598	 88.3936
2459.5419	 88.3877
2460.0241	 88.3854
2460.5063	 88.3778
2460.9884	 88.3689
2461.4706	 88.3869
2461.9528	 88.3949
2462.4349	 88.3824
2462.9171	 88.3839
2463.3993	 88.3863
2463.8814	 88.3757
2464.3636	 88.3647
2464.8458	 88.3629
2465.3279	 88.3683
2465.8101	 88.3650
2466.2923	 88.3713
2466.7745	 88.3897
2467.2566	 88.3876
2467.7388	 88.3740
2468.2210	 88.3677
2468.7031	 88.3700
2469.1853	 88.3696
2469.6675	 88.3602
2470.1496	 88.3532
2470.6318	 88.3604
2471.1140	 88.3745
2471.5961	 88.3849
2472.0783	 88.3993
2472.5605	 88.3946
2473.0426	 88.3656
2473.5248	 88.3462
2474.0070	 88.3379
2474.4891	 88.3415
2474.9713	 88.3512
2475.4535	 88.3508
2475.9357	 88.3508
2476.4178	 88.3545
2476.9000	 88.3632
2477.3822	 88.3643
2477.8643	 88.3560
2478.3465	 88.3600
2478.8287	 88.3715
2479.3108	 88.3756
2479.7930	 88.3563
2480.2752	 88.3319
2480.7573	 88.3437
2481.2395	 88.3561
2481.7217	 88.3326
2482.2038	 88.3290
2482.6860	 88.3317
2483.1682	 88.3178
2483.6504	 88.3278
2484.1325	 88.3415
2484.6147	 88.3472
2485.0969	 88.3413
2485.5790	 88.3249
2486.0612	 88.3179
2486.5434	 88.3220
2487.0255	 88.3309
2487.5077	 88.3297
2487.9899	 88.3211
2488.4720	 88.3212
2488.9542	 88.3205
2489.4364	 88.3106
2489.9185	 88.3121
2490.4007	 88.3165
2490.8829	 88.3137
2491.3650	 88.3096
2491.8472	 88.3051
2492.3294	 88.3040
2492.8116	 88.3054
2493.2937	 88.3133
2493.7759	 88.3154
2494.2581	 88.3110
2494.7402	 88.3087
2495.2224	 88.3134
2495.7046	 88.3139
2496.1867	 88.3104
2496.6689	 88.3317
2497.1511	 88.3431
2497.6332	 88.3295
2498.1154	 88.3079
2498.5976	 88.2825
2499.0797	 88.2874
2499.5619	 88.3073
2500.0441	 88.3091
2500.5263	 88.3038
2501.0084	 88.3053
2501.4906	 88.3078
2501.9728	 88.3008
2502.4549	 88.2942
2502.9371	 88.2974
2503.4193	 88.3002
2503.9014	 88.2950
2504.3836	 88.3002
2504.8658	 88.3135
2505.3479	 88.3169
2505.8301	 88.3040
2506.3123	 88.2873
2506.7944	 88.2885
2507.2766	 88.2880
2507.7588	 88.2843
2508.2409	 88.2900
2508.7231	 88.2945
2509.2053	 88.2978
2509.6875	 88.3027
2510.1696	 88.3028
2510.6518	 88.2867
2511.1340	 88.2734
2511.6161	 88.2765
2512.0983	 88.2865
2512.5805	 88.2928
2513.0626	 88.2890
2513.5448	 88.2822
2514.0270	 88.2864
2514.5091	 88.2952
2514.9913	 88.2877
2515.4735	 88.2821
2515.9556	 88.2813
2516.4378	 88.2695
2516.9200	 88.2581
2517.4022	 88.2691
2517.8843	 88.2919
2518.3665	 88.2975
2518.8487	 88.2861
2519.3308	 88.2671
2519.8130	 88.2615
2520.2952	 88.2690
2520.7773	 88.2840
2521.2595	 88.2933
2521.7417	 88.2821
2522.2238	 88.2783
2522.7060	 88.2821
2523.1882	 88.2785
2523.6703	 88.2774
2524.1525	 88.2833
2524.6347	 88.2795
2525.1168	 88.2694
2525.5990	 88.2667
2526.0812	 88.2622
2526.5634	 88.2540
2527.0455	 88.2439
2527.5277	 88.2470
2528.0099	 88.2770
2528.4920	 88.2878
2528.9742	 88.2697
2529.4564	 88.2598
2529.9385	 88.2527
2530.4207	 88.2411
2530.9029	 88.2345
2531.3850	 88.2435
2531.8672	 88.2505
2532.3494	 88.2523
2532.8315	 88.2618
2533.3137	 88.2611
2533.7959	 88.2524
2534.2781	 88.2603
2534.7602	 88.2784
2535.2424	 88.2822
2535.7246	 88.2703
2536.2067	 88.2521
2536.6889	 88.2507
2537.1711	 88.2589
2537.6532	 88.2367
2538.1354	 88.2173
2538.6176	 88.2277
2539.0997	 88.2227
2539.5819	 88.2086
2540.0641	 88.2257
2540.5462	 88.2479
2541.0284	 88.2418
2541.5106	 88.2406
2541.9927	 88.2655
2542.4749	 88.2727
2542.9571	 88.2501
2543.4393	 88.2425
2543.9214	 88.2437
2544.4036	 88.2263
2544.8858	 88.2173
2545.3679	 88.2326
2545.8501	 88.2484
2546.3323	 88.2516
2546.8144	 88.2572
2547.2966	 88.2504
2547.7788	 88.2307
2548.2609	 88.2281
2548.7431	 88.2248
2549.2253	 88.2192
2549.7074	 88.2264
2550.1896	 88.2400
2550.6718	 88.2493
2551.1540	 88.2411
2551.6361	 88.2298
2552.1183	 88.2297
2552.6005	 88.2294
2553.0826	 88.2278
2553.5648	 88.2266
2554.0470	 88.2262
2554.5291	 88.2276
2555.0113	 88.2255
2555.4935	 88.2290
2555.9756	 88.2268
2556.4578	 88.2200
2556.9400	 88.2228
2557.4221	 88.2209
2557.9043	 88.2236
2558.3865	 88.2201
2558.8686	 88.2085
2559.3508	 88.2145
2559.8330	 88.2312
2560.3152	 88.2268
2560.7973	 88.2104
2561.2795	 88.2157
2561.7617	 88.2143
2562.2438	 88.1940
2562.7260	 88.1891
2563.2082	 88.2040
2563.6903	 88.2126
2564.1725	 88.2198
2564.6547	 88.2258
2565.1368	 88.2012
2565.6190	 88.1870
2566.1012	 88.2095
2566.5833	 88.2192
2567.0655	 88.2133
2567.5477	 88.2124
2568.0299	 88.2122
2568.5120	 88.1990
2568.9942	 88.1805
2569.4764	 88.1880
2569.9585	 88.1946
2570.4407	 88.1904
2570.9229	 88.1990
2571.4050	 88.1944
2571.8872	 88.1837
2572.3694	 88.1874
2572.8515	 88.1967
2573.3337	 88.2078
2573.8159	 88.2062
2574.2980	 88.1930
2574.7802	 88.1977
2575.2624	 88.2069
2575.7445	 88.1947
2576.2267	 88.1886
2576.7089	 88.2029
2577.1911	 88.2128
2577.6732	 88.2104
2578.1554	 88.2035
2578.6376	 88.1958
2579.1197	 88.1797
2579.6019	 88.1682
2580.0841	 88.1821
2580.5662	 88.1884
2581.0484	 88.1751
2581.5306	 88.1843
2582.0127	 88.2118
2582.4949	 88.2183
2582.9771	 88.2082
2583.4592	 88.1992
2583.9414	 88.2000
2584.4236	 88.2051
2584.9058	 88.1973
2585.3879	 88.1882
2585.8701	 88.1879
2586.3523	 88.1879
2586.8344	 88.1864
2587.3166	 88.1797
2587.7988	 88.1589
2588.2809	 88.1494
2588.7631	 88.1592
2589.2453	 88.1657
2589.7274	 88.1643
2590.2096	 88.1778
2590.6918	 88.1946
2591.1739	 88.1733
2591.6561	 88.1616
2592.1383	 88.1763
2592.6204	 88.1704
2593.1026	 88.1506
2593.5848	 88.1428
2594.0670	 88.1575
2594.5491	 88.1796
2595.0313	 88.1772
2595.5135	 88.1526
2595.9956	 88.1415
2596.4778	 88.1581
2596.9600	 88.1790
2597.4421	 88.1701
2597.9243	 88.1419
2598.4065	 88.1190
2598.8886	 88.1080
2599.3708	 88.1319
2599.8530	 88.1709
2600.3351	 88.1840
2600.8173	 88.1700
2601.2995	 88.1514
2601.7817	 88.1555
2602.2638	 88.1670
2602.7460	 88.1594
2603.2282	 88.1483
2603.7103	 88.1447
2604.1925	 88.1576
2604.6747	 88.1784
2605.1568	 88.1729
2605.6390	 88.1547
2606.1212	 88.1402
2606.6033	 88.1417
2607.0855	 88.1585
2607.5677	 88.1496
2608.0498	 88.1373
2608.5320	 88.1544
2609.0142	 88.1587
2609.4964	 88.1496
2609.9785	 88.1505
2610.4607	 88.1539
2610.9429	 88.1588
2611.4250	 88.1517
2611.9072	 88.1320
2612.3894	 88.1158
2612.8715	 88.1172
2613.3537	 88.1161
2613.8359	 88.1058
2614.3180	 88.1129
2614.8002	 88.1265
2615.2824	 88.1400
2615.7645	 88.1501
2616.2467	 88.1416
2616.7289	 88.1361
2617.2110	 88.1424
2617.6932	 88.1427
2618.1754	 88.1375
2618.6576	 88.1323
2619.1397	 88.1295
2619.6219	 88.1286
2620.1041	 88.1377
2620.5862	 88.1380
2621.0684	 88.1148
2621.5506	 88.1117
2622.0327	 88.1294
2622.5149	 88.1289
2622.9971	 88.1252
2623.4792	 88.1231
2623.9614	 88.1034
2624.4436	 88.0904
2624.9257	 88.0654
2625.4079	 88.0126
2625.8901	 88.0202
2626.3723	 88.0865
2626.8544	 88.1164
2627.3366	 88.1123
2627.8188	 88.1209
2628.3009	 88.1290
2628.7831	 88.1269
2629.2653	 88.1264
2629.7474	 88.1136
2630.2296	 88.0963
2630.7118	 88.0921
2631.1939	 88.0988
2631.6761	 88.1021
2632.1583	 88.1035
2632.6404	 88.1040
2633.1226	 88.1051
2633.6048	 88.1080
2634.0869	 88.0902
2634.5691	 88.0741
2635.0513	 88.0921
2635.5335	 88.1178
2636.0156	 88.1130
2636.4978	 88.0939
2636.9800	 88.0972
2637.4621	 88.1037
2637.9443	 88.0956
2638.4265	 88.0878
2638.9086	 88.0799
2639.3908	 88.0699
2639.8730	 88.0744
2640.3551	 88.0830
2640.8373	 88.0812
2641.3195	 88.0901
2641.8016	 88.0940
2642.2838	 88.0810
2642.7660	 88.0827
2643.2482	 88.0885
2643.7303	 88.0908
2644.2125	 88.1003
2644.6947	 88.0963
2645.1768	 88.0890
2645.6590	 88.0906
2646.1412	 88.0813
2646.6233	 88.0708
2647.1055	 88.0717
2647.5877	 88.0706
2648.0698	 88.0685
2648.5520	 88.0801
2649.0342	 88.0834
2649.5163	 88.0488
2649.9985	 87.9961
2650.4807	 88.0062
2650.9628	 88.0386
2651.4450	 87.9193
2651.9272	 87.8022
2652.4094	 87.9055
2652.8915	 88.0380
2653.3737	 88.0732
2653.8559	 88.0817
2654.3380	 88.0885
2654.8202	 88.0927
2655.3024	 88.0914
2655.7845	 88.0907
2656.2667	 88.0793
2656.7489	 88.0682
2657.2310	 88.0672
2657.7132	 88.0615
2658.1954	 88.0592
2658.6775	 88.0616
2659.1597	 88.0578
2659.6419	 88.0503
2660.1241	 88.0536
2660.6062	 88.0702
2661.0884	 88.0715
2661.5706	 88.0617
2662.0527	 88.0562
2662.5349	 88.0535
2663.0171	 88.0601
2663.4992	 88.0616
2663.9814	 88.0519
2664.4636	 88.0445
2664.9457	 88.0475
2665.4279	 88.0483
2665.9101	 88.0467
2666.3922	 88.0489
2666.8744	 88.0522
2667.3566	 88.0512
2667.8387	 88.0457
2668.3209	 88.0429
2668.8031	 88.0383
2669.2853	 88.0354
2669.7674	 88.0363
2670.2496	 88.0377
2670.7318	 88.0416
2671.2139	 88.0414
2671.6961	 88.0424
2672.1783	 88.0500
2672.6604	 88.0469
2673.1426	 88.0419
2673.6248	 88.0439
2674.1069	 88.0359
2674.5891	 88.0337
2675.0713	 88.0037
2675.5534	 87.8897
2676.0356	 87.8426
2676.5178	 87.9300
2677.0000	 87.8005
2677.4821	 87.4475
2677.9643	 87.4994
2678.4465	 87.8892
2678.9286	 88.0522
2679.4108	 88.0430
2679.8930	 88.0373
2680.3751	 88.0262
2680.8573	 88.0183
2681.3395	 88.0191
2681.8216	 88.0134
2682.3038	 88.0170
2682.7860	 88.0257
2683.2681	 88.0317
2683.7503	 88.0435
2684.2325	 88.0437
2684.7146	 88.0322
2685.1968	 88.0279
2685.6790	 88.0352
2686.1612	 88.0232
2686.6433	 88.0129
2687.1255	 88.0377
2687.6077	 88.0582
2688.0898	 88.0518
2688.5720	 88.0458
2689.0542	 88.0397
2689.5363	 88.0361
2690.0185	 88.0389
2690.5007	 88.0313
2690.9828	 88.0190
2691.4650	 88.0094
2691.9472	 88.0134
2692.4293	 88.0240
2692.9115	 88.0271
2693.3937	 88.0250
2693.8759	 88.0268
2694.3580	 88.0431
2694.8402	 88.0485
2695.3224	 88.0342
2695.8045	 88.0252
2696.2867	 88.0170
2696.7689	 88.0086
2697.2510	 88.0063
2697.7332	 87.9935
2698.2154	 87.9860
2698.6975	 87.9970
2699.1797	 88.0030
2699.6619	 88.0041
2700.1440	 87.9608
2700.6262	 87.7416
2701.1084	 87.5425
2701.5905	 87.7033
2702.0727	 87.7213
2702.5549	 87.0203
2703.0371	 86.6382
2703.5192	 87.3155
2704.0014	 87.9110
2704.4836	 87.9838
2704.9657	 87.9970
2705.4479	 87.9924
2705.9301	 87.9786
2706.4122	 87.9819
2706.8944	 87.9797
2707.3766	 87.9842
2707.8587	 88.0008
2708.3409	 88.0074
2708.8231	 88.0004
2709.3052	 87.9896
2709.7874	 87.9897
2710.2696	 88.0000
2710.7518	 88.0132
2711.2339	 88.0048
2711.7161	 87.9750
2712.1983	 87.9722
2712.6804	 87.9934
2713.1626	 87.9946
2713.6448	 87.9878
2714.1269	 87.9950
2714.6091	 87.9966
2715.0913	 87.9851
2715.5734	 87.9672
2716.0556	 87.9531
2716.5378	 87.9505
2717.0199	 87.9597
2717.5021	 87.9679
2717.9843	 87.9674
2718.4664	 87.9710
2718.9486	 87.9685
2719.4308	 87.9552
2719.9130	 87.9475
2720.3951	 87.9428
2720.8773	 87.9394
2721.3595	 87.9369
2721.8416	 87.9495
2722.3238	 87.9726
2722.8060	 87.9786
2723.2881	 87.9681
2723.7703	 87.9540
2724.2525	 87.9350
2724.7346	 87.8960
2725.2168	 87.6017
2725.6990	 87.1281
2726.1811	 87.2100
2726.6633	 87.5413
2727.1455	 86.7103
2727.6277	 85.4777
2728.1098	 86.0866
2728.5920	 87.5030
2729.0742	 87.9030
2729.5563	 87.8816
2730.0385	 87.9079
2730.5207	 87.9306
2731.0028	 87.9538
2731.4850	 87.9443
2731.9672	 87.9230
2732.4493	 87.9151
2732.9315	 87.9191
2733.4137	 87.9132
2733.8958	 87.9025
2734.3780	 87.9028
2734.8602	 87.9158
2735.3423	 87.9188
2735.8245	 87.9246
2736.3067	 87.9350
2736.7889	 87.9245
2737.2710	 87.9152
2737.7532	 87.9269
2738.2354	 87.9231
2738.7175	 87.9069
2739.1997	 87.9183
2739.6819	 87.9288
2740.1640	 87.9279
2740.6462	 87.9253
2741.1284	 87.9099
2741.6105	 87.9067
2742.0927	 87.9220
2742.5749	 87.9358
2743.0570	 87.9239
2743.5392	 87.9019
2744.0214	 87.9085
2744.5036	 87.9178
2744.9857	 87.9145
2745.4679	 87.9105
2745.9501	 87.9031
2746.4322	 87.8933
2746.9144	 87.8823
2747.3966	 87.8739
2747.8787	 87.8841
2748.3609	 87.8750
2748.8431	 87.8146
2749.3252	 87.4338
2749.8074	 86.6479
2750.2896	 86.5330
2750.7717	 87.2074
2751.2539	 86.5117
2751.7361	 84.2949
2752.2182	 84.2374
2752.7004	 86.5615
2753.1826	 87.7828
2753.6648	 87.8325
2754.1469	 87.8604
2754.6291	 87.8622
2755.1113	 87.8624
2755.5934	 87.8576
2756.0756	 87.8621
2756.5578	 87.8679
2757.0399	 87.8730
2757.5221	 87.8609
2758.0043	 87.8409
2758.4864	 87.8472
2758.9686	 87.8687
2759.4508	 87.8766
2759.9329	 87.8783
2760.4151	 87.8652
2760.8973	 87.8546
2761.3795	 87.8556
2761.8616	 87.8588
2762.3438	 87.8620
2762.8260	 87.8479
2763.3081	 87.8327
2763.7903	 87.8223
2764.2725	 87.8049
2764.7546	 87.7977
2765.2368	 87.8146
2765.7190	 87.8315
2766.2011	 87.8310
2766.6833	 87.8299
2767.1655	 87.8377
2767.6476	 87.8389
2768.1298	 87.8262
2768.6120	 87.8200
2769.0941	 87.8210
2769.5763	 87.8297
2770.0585	 87.8325
2770.5407	 87.8208
2771.0228	 87.8090
2771.5050	 87.7989
2771.9872	 87.7824
2772.4693	 87.7203
2772.9515	 87.2436
2773.4337	 86.1270
2773.9158	 85.7765
2774.3980	 86.7342
2774.8802	 86.2612
2775.3623	 83.2147
2775.8445	 82.2217
2776.3267	 85.2227
2776.8088	 87.4918
2777.2910	 87.7333
2777.7732	 87.7628
2778.2554	 87.7695
2778.7375	 87.7650
2779.2197	 87.7817
2779.7019	 87.7778
2780.1840	 87.7691
2780.6662	 87.7824
2781.1484	 87.7841
2781.6305	 87.7744
2782.1127	 87.7786
2782.5949	 87.7817
2783.0770	 87.7728
2783.5592	 87.7803
2784.0414	 87.7830
2784.5235	 87.7588
2785.0057	 87.7465
2785.4879	 87.7530
2785.9701	 87.7574
2786.4522	 87.7552
2786.9344	 87.7455
2787.4166	 87.7402
2787.8987	 87.7390
2788.3809	 87.7351
2788.8631	 87.7472
2789.3452	 87.7649
2789.8274	 87.7613
2790.3096	 87.7458
2790.7917	 87.7435
2791.2739	 87.7424
2791.7561	 87.7422
2792.2382	 87.7488
2792.7204	 87.7489
2793.2026	 87.7443
2793.6847	 87.7284
2794.1669	 87.7215
2794.6491	 87.7260
2795.1313	 87.7090
2795.6134	 87.6269
2796.0956	 86.9999
2796.5778	 85.5635
2797.0599	 85.1018
2797.5421	 86.2941
2798.0243	 85.8715
2798.5064	 82.1768
2798.9886	 80.5214
2799.4708	 84.0155
2799.9529	 87.1471
2800.4351	 87.6013
2800.9173	 87.6137
2801.3994	 87.6551
2801.8816	 87.6655
2802.3638	 87.6648
2802.8460	 87.6691
2803.3281	 87.6614
2803.8103	 87.6627
2804.2925	 87.6858
2804.7746	 87.6840
2805.2568	 87.6699
2805.7390	 87.6638
2806.2211	 87.6648
2806.7033	 87.6687
2807.1855	 87.6633
2807.6676	 87.6608
2808.1498	 87.6611
2808.6320	 87.6566
2809.1141	 87.6601
2809.5963	 87.6608
2810.0785	 87.6547
2810.5606	 87.6564
2811.0428	 87.6557
2811.5250	 87.6484
2812.0072	 87.6457
2812.4893	 87.6426
2812.9715	 87.6310
2813.4537	 87.6207
2813.9358	 87.6285
2814.4180	 87.6441
2814.9002	 87.6308
2815.3823	 87.6181
2815.8645	 87.6194
2816.3467	 87.6090
2816.8288	 87.6049
2817.3110	 87.5971
2817.7932	 87.5493
2818.2753	 87.4168
2818.7575	 86.6204
2819.2397	 85.0866
2819.7219	 84.8925
2820.2040	 86.2223
2820.6862	 85.3730
2821.1684	 81.2688
2821.6505	 79.9212
2822.1327	 83.8784
2822.6149	 87.0199
2823.0970	 87.4430
2823.5792	 87.4946
2824.0614	 87.5183
2824.5435	 87.5270
2825.0257	 87.5472
2825.5079	 87.5480
2825.9900	 87.5482
2826.4722	 87.5528
2826.9544	 87.5481
2827.4365	 87.5506
2827.9187	 87.5465
2828.4009	 87.5336
2828.8831	 87.5233
2829.3652	 87.5159
2829.8474	 87.5154
2830.3296	 87.5028
2830.8117	 87.5077
2831.2939	 87.5344
2831.7761	 87.5286
2832.2582	 87.5084
2832.7404	 87.4928
2833.2226	 87.4827
2833.7047	 87.4874
2834.1869	 87.4892
2834.6691	 87.4691
2835.1512	 87.4497
2835.6334	 87.4494
2836.1156	 87.4384
2836.5978	 87.4251
2837.0799	 87.4196
2837.5621	 87.4133
2838.0443	 87.4038
2838.5264	 87.3854
2839.0086	 87.3512
2839.4908	 87.3238
2839.9729	 87.2778
2840.4551	 87.0358
2840.9373	 86.0118
2841.4194	 84.8046
2841.9016	 85.2393
2842.3838	 86.2072
2842.8659	 84.4230
2843.3481	 80.7418
2843.8303	 80.8981
2844.3124	 84.7670
2844.7946	 86.8273
2845.2768	 86.9786
2845.7590	 87.0163
2846.2411	 86.9867
2846.7233	 86.9386
2847.2055	 86.8884
2847.6876	 86.8452
2848.1698	 86.7912
2848.6520	 86.7549
2849.1341	 86.7296
2849.6163	 86.7088
2850.0985	 86.7157
2850.5806	 86.7267
2851.0628	 86.7203
2851.5450	 86.7315
2852.0271	 86.7452
2852.5093	 86.7559
2852.9915	 86.7785
2853.4737	 86.7973
2853.9558	 86.8035
2854.4380	 86.8146
2854.9202	 86.8420
2855.4023	 86.8627
2855.8845	 86.8624
2856.3667	 86.8653
2856.8488	 86.8795
2857.3310	 86.9046
2857.8132	 86.9305
2858.2953	 86.9359
2858.7775	 86.9382
2859.2597	 86.9507
2859.7418	 86.9690
2860.2240	 86.9876
2860.7062	 86.9971
2861.1883	 86.9967
2861.6705	 86.9466
2862.1527	 86.5900
2862.6349	 85.8204
2863.1170	 85.6004
2863.5992	 86.2730
2864.0814	 86.1977
2864.5635	 84.1963
2865.0457	 82.6607
2865.5279	 84.2556
2866.0100	 86.4672
2866.4922	 87.0357
2866.9744	 87.0523
2867.4565	 87.0711
2867.9387	 87.0882
2868.4209	 87.1065
2868.9030	 87.0995
2869.3852	 87.0907
2869.8674	 87.0941
2870.3496	 87.1138
2870.8317	 87.1450
2871.3139	 87.1499
2871.7961	 87.1209
2872.2782	 87.1122
2872.7604	 87.1371
2873.2426	 87.1585
2873.7247	 87.1432
2874.2069	 87.1293
2874.6891	 87.1390
2875.1712	 87.1523
2875.6534	 87.1475
2876.1356	 87.1377
2876.6177	 87.1545
2877.0999	 87.1652
2877.5821	 87.1632
2878.0642	 87.1761
2878.5464	 87.1788
2879.0286	 87.1641
2879.5108	 87.1486
2879.9929	 87.1363
2880.4751	 87.1300
2880.9573	 87.1223
2881.4394	 87.1307
2881.9216	 87.1574
2882.4038	 87.1547
2882.8859	 87.1326
2883.3681	 87.1205
2883.8503	 87.1193
2884.3324	 87.1238
2884.8146	 87.1118
2885.2968	 87.0910
2885.7789	 87.0801
2886.2611	 87.0799
2886.7433	 87.0733
2887.2255	 87.0672
2887.7076	 87.0755
2888.1898	 87.0835
2888.6720	 87.0744
2889.1541	 87.0506
2889.6363	 87.0307
2890.1185	 87.0204
2890.6006	 87.0315
2891.0828	 87.0310
2891.5650	 87.0065
2892.0471	 87.0137
2892.5293	 87.0302
2893.0115	 87.0084
2893.4936	 86.9848
2893.9758	 86.9650
2894.4580	 86.9440
2894.9401	 86.9467
2895.4223	 86.9404
2895.9045	 86.9197
2896.3867	 86.9158
2896.8688	 86.9303
2897.3510	 86.9266
2897.8332	 86.9015
2898.3153	 86.8880
2898.7975	 86.8857
2899.2797	 86.8811
2899.7618	 86.8612
2900.2440	 86.8399
2900.7262	 86.8163
2901.2083	 86.7962
2901.6905	 86.7766
2902.1727	 86.7554
2902.6548	 86.7152
2903.1370	 86.4366
2903.6192	 85.6386
2904.1014	 85.1240
2904.5835	 85.6888
2905.0657	 86.0619
2905.5479	 84.5489
2906.0300	 82.2686
2906.5122	 82.7799
2906.9944	 85.3616
2907.4765	 86.5206
2907.9587	 86.5623
2908.4409	 86.5913
2908.9230	 86.5881
2909.4052	 86.5745
2909.8874	 86.5465
2910.3695	 86.5081
2910.8517	 86.4819
2911.3339	 86.4598
2911.8160	 86.4134
2912.2982	 86.3774
2912.7804	 86.3373
2913.2626	 86.2839
2913.7447	 86.2316
2914.2269	 86.1730
2914.7091	 86.1311
2915.1912	 86.1053
2915.6734	 86.0703
2916.1556	 86.0295
2916.6377	 85.9955
2917.1199	 85.9759
2917.6021	 85.9564
2918.0842	 85.9313
2918.5664	 85.9100
2919.0486	 85.9050
2919.5307	 85.9116
2920.0129	 85.9117
2920.4951	 85.9165
2920.9773	 85.9156
2921.4594	 85.9082
2921.9416	 85.9035
2922.4238	 85.7730
2922.9059	 85.0020
2923.3881	 83.5481
2923.8703	 83.3064
2924.3524	 84.6486
2924.8346	 84.6471
2925.3168	 81.3129
2925.7989	 78.2466
2926.2811	 80.5572
2926.7633	 84.6337
2927.2454	 85.8672
2927.7276	 85.9226
2928.2098	 86.0056
2928.6919	 86.0393
2929.1741	 86.0646
2929.6563	 86.0852
2930.1385	 86.1319
2930.6206	 86.1784
2931.1028	 86.1925
2931.5850	 86.1853
2932.0671	 86.2045
2932.5493	 86.2413
2933.0315	 86.2729
2933.5136	 86.2899
2933.9958	 86.3043
2934.4780	 86.3237
2934.9601	 86.3505
2935.4423	 86.3741
2935.9245	 86.3895
2936.4066	 86.4085
2936.8888	 86.4217
2937.3710	 86.4252
2937.8532	 86.4258
2938.3353	 86.4267
2938.8175	 86.4544
2939.2997	 86.4791
2939.7818	 86.4805
2940.2640	 86.4815
2940.7462	 86.4776
2941.2283	 86.4146
2941.7105	 85.9218
2942.1927	 84.3366
2942.6748	 83.1576
2943.1570	 84.3317
2943.6392	 85.5457
2944.1213	 83.2622
2944.6035	 78.5539
2945.0857	 78.3001
2945.5678	 83.2076
2946.0500	 86.1717
2946.5322	 86.4667
2947.0144	 86.5607
2947.4965	 86.5905
2947.9787	 86.5987
2948.4609	 86.5921
2948.9430	 86.5966
2949.4252	 86.6085
2949.9074	 86.6047
2950.3895	 86.5988
2950.8717	 86.5889
2951.3539	 86.5748
2951.8360	 86.5741
2952.3182	 86.5675
2952.8004	 86.5647
2953.2825	 86.5768
2953.7647	 86.5879
2954.2469	 86.5993
2954.7291	 86.6004
2955.2112	 86.5851
2955.6934	 86.5684
2956.1756	 86.5540
2956.6577	 86.5501
2957.1399	 86.5465
2957.6221	 86.5387
2958.1042	 86.5352
2958.5864	 86.5372
2959.0686	 86.5416
2959.5507	 86.4894
2960.0329	 86.0365
2960.5151	 84.5141
2960.9972	 83.2700
2961.4794	 84.3239
2961.9616	 85.6369
2962.4438	 83.7966
2962.9259	 79.2251
2963.4081	 78.3062
2963.8903	 82.8771
2964.3724	 86.1201
2964.8546	 86.5105
2965.3368	 86.5681
2965.8189	 86.5982
2966.3011	 86.6345
2966.7833	 86.6593
2967.2654	 86.6647
2967.7476	 86.6688
2968.2298	 86.6770
2968.7119	 86.7040
2969.1941	 86.7338
2969.6763	 86.7652
2970.1584	 86.8006
2970.6406	 86.7821
2971.1228	 86.7495
2971.6050	 86.7665
2972.0871	 86.7810
2972.5693	 86.7799
2973.0515	 86.7937
2973.5336	 86.8069
2974.0158	 86.8160
2974.4980	 86.8106
2974.9801	 86.8022
2975.4623	 86.8156
2975.9445	 86.8179
2976.4266	 86.7891
2976.9088	 86.7710
2977.3910	 86.7134
2977.8731	 86.1136
2978.3553	 84.6805
2978.8375	 84.1972
2979.3197	 85.5162
2979.8018	 86.1184
2980.2840	 83.6587
2980.7662	 79.9287
2981.2483	 80.6514
2981.7305	 84.8188
2982.2127	 86.6903
2982.6948	 86.7685
2983.1770	 86.8222
2983.6592	 86.8157
2984.1413	 86.8323
2984.6235	 86.8418
2985.1057	 86.8435
2985.5878	 86.8375
2986.0700	 86.8295
2986.5522	 86.8270
2987.0343	 86.8434
2987.5165	 86.8545
2987.9987	 86.8410
2988.4809	 86.8373
2988.9630	 86.8608
2989.4452	 86.8718
2989.9274	 86.8588
2990.4095	 86.8409
2990.8917	 86.8363
2991.3739	 86.8298
2991.8560	 86.8288
2992.3382	 86.8420
2992.8204	 86.8445
2993.3025	 86.8465
2993.7847	 86.8650
2994.2669	 86.8411
2994.7490	 86.5486
2995.2312	 85.6068
2995.7134	 84.8565
2996.1956	 85.5411
2996.6777	 86.4251
2997.1599	 85.4154
2997.6421	 82.4940
2998.1242	 81.5489
2998.6064	 84.3349
2999.0886	 86.5478
2999.5707	 86.7978
3000.0529	 86.7992
3000.5351	 86.7944
3001.0172	 86.7938
3001.4994	 86.8160
3001.9816	 86.8169
3002.4637	 86.7984
3002.9459	 86.7904
3003.4281	 86.8065
3003.9102	 86.8154
3004.3924	 86.7964
3004.8746	 86.7982
3005.3568	 86.8191
3005.8389	 86.8199
3006.3211	 86.8219
3006.8033	 86.8241
3007.2854	 86.8140
3007.7676	 86.8073
3008.2498	 86.7944
3008.7319	 86.7701
3009.2141	 86.7620
3009.6963	 86.7654
3010.1784	 86.7685
3010.6606	 86.7429
3011.1428	 86.5224
3011.6249	 85.8788
3012.1071	 85.4670
3012.5893	 86.0148
3013.0715	 86.5371
3013.5536	 85.7614
3014.0358	 83.8358
3014.5180	 83.3582
3015.0001	 85.2512
3015.4823	 86.6261
3015.9645	 86.7440
3016.4466	 86.7295
3016.9288	 86.7297
3017.4110	 86.7145
3017.8931	 86.6983
3018.3753	 86.7190
3018.8575	 86.7365
3019.3396	 86.7259
3019.8218	 86.7174
3020.3040	 86.7155
3020.7861	 86.7112
3021.2683	 86.7141
3021.7505	 86.7174
3022.2327	 86.7034
3022.7148	 86.6827
3023.1970	 86.6906
3023.6792	 86.7039
3024.1613	 86.6902
3024.6435	 86.6804
3025.1257	 86.6891
3025.6078	 86.6972
3026.0900	 86.6791
3026.5722	 86.6115
3027.0543	 86.3657
3027.5365	 85.9956
3028.0187	 86.0555
3028.5008	 86.4660
3028.9830	 86.4463
3029.4652	 85.5671
3029.9474	 84.6277
3030.4295	 85.1460
3030.9117	 86.3226
3031.3939	 86.6854
3031.8760	 86.6637
3032.3582	 86.6563
3032.8404	 86.6335
3033.3225	 86.6296
3033.8047	 86.6399
3034.2869	 86.6519
3034.7690	 86.6398
3035.2512	 86.6117
3035.7334	 86.6188
3036.2155	 86.6385
3036.6977	 86.6227
3037.1799	 86.6083
3037.6620	 86.6017
3038.1442	 86.5796
3038.6264	 86.5692
3039.1086	 86.5665
3039.5907	 86.5511
3040.0729	 86.5550
3040.5551	 86.5621
3041.0372	 86.5454
3041.5194	 86.5267
3042.0016	 86.4179
3042.4837	 86.2374
3042.9659	 86.2766
3043.4481	 86.4782
3043.9302	 86.4631
3044.4124	 85.9995
3044.8946	 85.4795
3045.3767	 85.7276
3045.8589	 86.3531
3046.3411	 86.5439
3046.8233	 86.5089
3047.3054	 86.5098
3047.7876	 86.5208
3048.2698	 86.5172
3048.7519	 86.4954
3049.2341	 86.4844
3049.7163	 86.4966
3050.1984	 86.5024
3050.6806	 86.4875
3051.1628	 86.4854
3051.6449	 86.4952
3052.1271	 86.4772
3052.6093	 86.4461
3053.0914	 86.4396
3053.5736	 86.4567
3054.0558	 86.4608
3054.5379	 86.4543
3055.0201	 86.4627
3055.5023	 86.4475
3055.9845	 86.4027
3056.4666	 86.3259
3056.9488	 86.2702
3057.4310	 86.3255
3057.9131	 86.3897
3058.3953	 86.2989
3058.8775	 86.0422
3059.3596	 85.9415
3059.8418	 86.1889
3060.3240	 86.4050
3060.8061	 86.4143
3061.2883	 86.3777
3061.7705	 86.3558
3062.2526	 86.3539
3062.7348	 86.3558
3063.2170	 86.3435
3063.6992	 86.3306
3064.1813	 86.3389
3064.6635	 86.3425
3065.1457	 86.3389
3065.6278	 86.3302
3066.1100	 86.3047
3066.5922	 86.2963
3067.0743	 86.3017
3067.5565	 86.2903
3068.0387	 86.2874
3068.5208	 86.3162
3069.0030	 86.3266
3069.4852	 86.2777
3069.9673	 86.2256
3070.4495	 86.2220
3070.9317	 86.2487
3071.4138	 86.2641
3071.8960	 86.2306
3072.3782	 86.1101
3072.8604	 86.0306
3073.3425	 86.1451
3073.8247	 86.2698
3074.3069	 86.2684
3074.7890	 86.2440
3075.2712	 86.2288
3075.7534	 86.2313
3076.2355	 86.2523
3076.7177	 86.2325
3077.1999	 86.1974
3077.6820	 86.1927
3078.1642	 86.1814
3078.6464	 86.1884
3079.1285	 86.2189
3079.6107	 86.2126
3080.0929	 86.1920
3080.5751	 86.1830
3081.0572	 86.1833
3081.5394	 86.1817
3082.0216	 86.1622
3082.5037	 86.1476
3082.9859	 86.1319
3083.4681	 86.1357
3083.9502	 86.1469
3084.4324	 86.1179
3084.9146	 86.0780
3085.3967	 86.0377
3085.8789	 86.0407
3086.3611	 86.0846
3086.8432	 86.1082
3087.3254	 86.1221
3087.8076	 86.1121
3088.2897	 86.0896
3088.7719	 86.0939
3089.2541	 86.0963
3089.7363	 86.0755
3090.2184	 86.0611
3090.7006	 86.0473
3091.1828	 86.0262
3091.6649	 86.0158
3092.1471	 86.0096
3092.6293	 86.0173
3093.1114	 86.0337
3093.5936	 86.0398
3094.0758	 86.0381
3094.5579	 86.0226
3095.0401	 85.9983
3095.5223	 86.0040
3096.0044	 86.0425
3096.4866	 86.0510
3096.9688	 86.0112
3097.4510	 85.9821
3097.9331	 85.9865
3098.4153	 85.9797
3098.8975	 85.9675
3099.3796	 85.9740
3099.8618	 85.9693
3100.3440	 85.9503
3100.8261	 85.9460
3101.3083	 85.9453
3101.7905	 85.9280
3102.2726	 85.9091
3102.7548	 85.9050
3103.2370	 85.9039
3103.7191	 85.8841
3104.2013	 85.8727
3104.6835	 85.8567
3105.1656	 85.8387
3105.6478	 85.8548
3106.1300	 85.8485
3106.6122	 85.8245
3107.0943	 85.8233
3107.5765	 85.8250
3108.0587	 85.8229
3108.5408	 85.8208
3109.0230	 85.8220
3109.5052	 85.8192
3109.9873	 85.8144
3110.4695	 85.8250
3110.9517	 85.8225
3111.4338	 85.7945
3111.9160	 85.7778
3112.3982	 85.7693
3112.8803	 85.7638
3113.3625	 85.7718
3113.8447	 85.7681
3114.3269	 85.7541
3114.8090	 85.7461
3115.2912	 85.7414
3115.7734	 85.7454
3116.2555	 85.7230
3116.7377	 85.6893
3117.2199	 85.6917
3117.7020	 85.6853
3118.1842	 85.6796
3118.6664	 85.6963
3119.1485	 85.6967
3119.6307	 85.6676
3120.1129	 85.6339
3120.5950	 85.6326
3121.0772	 85.6382
3121.5594	 85.6315
3122.0415	 85.6305
3122.5237	 85.6308
3123.0059	 85.6132
3123.4881	 85.5947
3123.9702	 85.5952
3124.4524	 85.5849
3124.9346	 85.5553
3125.4167	 85.5423
3125.8989	 85.5435
3126.3811	 85.5351
3126.8632	 85.5326
3127.3454	 85.5402
3127.8276	 85.5462
3128.3097	 85.5476
3128.7919	 85.5320
3129.2741	 85.4971
3129.7562	 85.4778
3130.2384	 85.4749
3130.7206	 85.4676
3131.2028	 85.4531
3131.6849	 85.4406
3132.1671	 85.4488
3132.6493	 85.4539
3133.1314	 85.4368
3133.6136	 85.4176
3134.0958	 85.4125
3134.5779	 85.4152
3135.0601	 85.4160
3135.5423	 85.4072
3136.0244	 85.3776
3136.5066	 85.3453
3136.9888	 85.3408
3137.4709	 85.3435
3137.9531	 85.3301
3138.4353	 85.3217
3138.9174	 85.3267
3139.3996	 85.3212
3139.8818	 85.2971
3140.3640	 85.2931
3140.8461	 85.3078
3141.3283	 85.3041
3141.8105	 85.2772
3142.2926	 85.2553
3142.7748	 85.2586
3143.2570	 85.2514
3143.7391	 85.2360
3144.2213	 85.2270
3144.7035	 85.2184
3145.1856	 85.2197
3145.6678	 85.1988
3146.1500	 85.1558
3146.6321	 85.1307
3147.1143	 85.1290
3147.5965	 85.1395
3148.0787	 85.1422
3148.5608	 85.1339
3149.0430	 85.1234
3149.5252	 85.0998
3150.0073	 85.0723
3150.4895	 85.0610
3150.9717	 85.0581
3151.4538	 85.0575
3151.9360	 85.0677
3152.4182	 85.0712
3152.9003	 85.0481
3153.3825	 85.0396
3153.8647	 85.0495
3154.3468	 85.0468
3154.8290	 85.0349
3155.3112	 85.0127
3155.7934	 84.9796
3156.2755	 84.9523
3156.7577	 84.9564
3157.2399	 84.9569
3157.7220	 84.9232
3158.2042	 84.8929
3158.6864	 84.8920
3159.1685	 84.9051
3159.6507	 84.8838
3160.1329	 84.8409
3160.6150	 84.8177
3161.0972	 84.8177
3161.5794	 84.8239
3162.0615	 84.8166
3162.5437	 84.8211
3163.0259	 84.8361
3163.5080	 84.8228
3163.9902	 84.7954
3164.4724	 84.7760
3164.9546	 84.7576
3165.4367	 84.7541
3165.9189	 84.7602
3166.4011	 84.7507
3166.8832	 84.7427
3167.3654	 84.7401
3167.8476	 84.7063
3168.3297	 84.6748
3168.8119	 84.6765
3169.2941	 84.6743
3169.7762	 84.6549
3170.2584	 84.6287
3170.7406	 84.6173
3171.2227	 84.6253
3171.7049	 84.6213
3172.1871	 84.6017
3172.6693	 84.5860
3173.1514	 84.5634
3173.6336	 84.5431
3174.1158	 84.5209
3174.5979	 84.4913
3175.0801	 84.4793
3175.5623	 84.4704
3176.0444	 84.4705
3176.5266	 84.4794
3177.0088	 84.4687
3177.4909	 84.4572
3177.9731	 84.4463
3178.4553	 84.4314
3178.9374	 84.4327
3179.4196	 84.4346
3179.9018	 84.4212
3180.3839	 84.3956
3180.8661	 84.3692
3181.3483	 84.3560
3181.8305	 84.3435
3182.3126	 84.3276
3182.7948	 84.3229
3183.2770	 84.3241
3183.7591	 84.3134
3184.2413	 84.2811
3184.7235	 84.2442
3185.2056	 84.2294
3185.6878	 84.2320
3186.1700	 84.2152
3186.6521	 84.1856
3187.1343	 84.1754
3187.6165	 84.1675
3188.0986	 84.1523
3188.5808	 84.1433
3189.0630	 84.1465
3189.5452	 84.1423
3190.0273	 84.1182
3190.5095	 84.0977
3190.9917	 84.0899
3191.4738	 84.0787
3191.9560	 84.0569
3192.4382	 84.0445
3192.9203	 84.0341
3193.4025	 84.0229
3193.8847	 84.0287
3194.3668	 84.0127
3194.8490	 83.9782
3195.3312	 83.9714
3195.8133	 83.9793
3196.2955	 83.9811
3196.7777	 83.9675
3197.2598	 83.9451
3197.7420	 83.9275
3198.2242	 83.9030
3198.7064	 83.8716
3199.1885	 83.8726
3199.6707	 83.8918
3200.1529	 83.8666
3200.6350	 83.8175
3201.1172	 83.7860
3201.5994	 83.7690
3202.0815	 83.7684
3202.5637	 83.7790
3203.0459	 83.7714
3203.5280	 83.7558
3204.0102	 83.7579
3204.4924	 83.7526
3204.9745	 83.7228
3205.4567	 83.7001
3205.9389	 83.6913
3206.4211	 83.6738
3206.9032	 83.6616
3207.3854	 83.6647
3207.8676	 83.6545
3208.3497	 83.6210
3208.8319	 83.5943
3209.3141	 83.5937
3209.7962	 83.5950
3210.2784	 83.5835
3210.7606	 83.5723
3211.2427	 83.5426
3211.7249	 83.5138
3212.2071	 83.5070
3212.6892	 83.4901
3213.1714	 83.4561
3213.6536	 83.4392
3214.1357	 83.4617
3214.6179	 83.4572
3215.1001	 83.4197
3215.5823	 83.4101
3216.0644	 83.4040
3216.5466	 83.3913
3217.0288	 83.3784
3217.5109	 83.3463
3217.9931	 83.3365
3218.4753	 83.3511
3218.9574	 83.3448
3219.4396	 83.3277
3219.9218	 83.3179
3220.4039	 83.3162
3220.8861	 83.3021
3221.3683	 83.2710
3221.8504	 83.2515
3222.3326	 83.2432
3222.8148	 83.2201
3223.2970	 83.1815
3223.7791	 83.1716
3224.2613	 83.2001
3224.7435	 83.2054
3225.2256	 83.1702
3225.7078	 83.1537
3226.1900	 83.1732
3226.6721	 83.1611
3227.1543	 83.1314
3227.6365	 83.1269
3228.1186	 83.1080
3228.6008	 83.0900
3229.0830	 83.0850
3229.5651	 83.0745
3230.0473	 83.0760
3230.5295	 83.0777
3231.0116	 83.0609
3231.4938	 83.0350
3231.9760	 83.0153
3232.4582	 83.0081
3232.9403	 82.9958
3233.4225	 82.9880
3233.9047	 82.9872
3234.3868	 82.9741
3234.8690	 82.9705
3235.3512	 82.9573
3235.8333	 82.9146
3236.3155	 82.9076
3236.7977	 82.9365
3237.2798	 82.9397
3237.7620	 82.9110
3238.2442	 82.8721
3238.7263	 82.8549
3239.2085	 82.8601
3239.6907	 82.8632
3240.1729	 82.8588
3240.6550	 82.8431
3241.1372	 82.8223
3241.6194	 82.8072
3242.1015	 82.7995
3242.5837	 82.7971
3243.0659	 82.7908
3243.5480	 82.7668
3244.0302	 82.7413
3244.5124	 82.7376
3244.9945	 82.7331
3245.4767	 82.7180
3245.9589	 82.7093
3246.4410	 82.7159
3246.9232	 82.7310
3247.4054	 82.7241
3247.8875	 82.7069
3248.3697	 82.6945
3248.8519	 82.6827
3249.3341	 82.6934
3249.8162	 82.6896
3250.2984	 82.6531
3250.7806	 82.6334
3251.2627	 82.6376
3251.7449	 82.6382
3252.2271	 82.6227
3252.7092	 82.5997
3253.1914	 82.5831
3253.6736	 82.5925
3254.1557	 82.6083
3254.6379	 82.5979
3255.1201	 82.5803
3255.6022	 82.5732
3256.0844	 82.5702
3256.5666	 82.5622
3257.0488	 82.5490
3257.5309	 82.5431
3258.0131	 82.5392
3258.4953	 82.5191
3258.9774	 82.5101
3259.4596	 82.5122
3259.9418	 82.4889
3260.4239	 82.4775
3260.9061	 82.4917
3261.3883	 82.4750
3261.8704	 82.4390
3262.3526	 82.4385
3262.8348	 82.4378
3263.3169	 82.4142
3263.7991	 82.4081
3264.2813	 82.3961
3264.7634	 82.3786
3265.2456	 82.3860
3265.7278	 82.3968
3266.2100	 82.3842
3266.6921	 82.3506
3267.1743	 82.3448
3267.6565	 82.3770
3268.1386	 82.3874
3268.6208	 82.3582
3269.1030	 82.3334
3269.5851	 82.3282
3270.0673	 82.3218
3270.5495	 82.3123
3271.0316	 82.3026
3271.5138	 82.2974
3271.9960	 82.3035
3272.4781	 82.2985
3272.9603	 82.2703
3273.4425	 82.2616
3273.9247	 82.2609
3274.4068	 82.2416
3274.8890	 82.2360
3275.3712	 82.2118
3275.8533	 82.1950
3276.3355	 82.2281
3276.8177	 82.2330
3277.2998	 82.2033
3277.7820	 82.1766
3278.2642	 82.1477
3278.7463	 82.1509
3279.2285	 82.1796
3279.7107	 82.1702
3280.1928	 82.1313
3280.6750	 82.1066
3281.1572	 82.0968
3281.6393	 82.0835
3282.1215	 82.0709
3282.6037	 82.0574
3283.0859	 82.0498
3283.5680	 82.0534
3284.0502	 82.0454
3284.5324	 82.0368
3285.0145	 82.0288
3285.4967	 82.0031
3285.9789	 81.9885
3286.4610	 81.9952
3286.9432	 81.9965
3287.4254	 81.9943
3287.9075	 81.9805
3288.3897	 81.9556
3288.8719	 81.9405
3289.3540	 81.9351
3289.8362	 81.9210
3290.3184	 81.9010
3290.8006	 81.8859
3291.2827	 81.8719
3291.7649	 81.8588
3292.2471	 81.8533
3292.7292	 81.8405
3293.2114	 81.8108
3293.6936	 81.8045
3294.1757	 81.8116
3294.6579	 81.7908
3295.1401	 81.7597
3295.6222	 81.7522
3296.1044	 81.7592
3296.5866	 81.7575
3297.0687	 81.7550
3297.5509	 81.7579
3298.0331	 81.7454
3298.5152	 81.7040
3298.9974	 81.6586
3299.4796	 81.6491
3299.9618	 81.6742
3300.4439	 81.6762
3300.9261	 81.6422
3301.4083	 81.6204
3301.8904	 81.6162
3302.3726	 81.6125
3302.8548	 81.6008
3303.3369	 81.5764
3303.8191	 81.5556
3304.3013	 81.5680
3304.7834	 81.5876
3305.2656	 81.5656
3305.7478	 81.5224
3306.2299	 81.4842
3306.7121	 81.4551
3307.1943	 81.4513
3307.6765	 81.4525
3308.1586	 81.4500
3308.6408	 81.4464
3309.1230	 81.4012
3309.6051	 81.3704
3310.0873	 81.3944
3310.5695	 81.4070
3311.0516	 81.3894
3311.5338	 81.3540
3312.0160	 81.3278
3312.4981	 81.3235
3312.9803	 81.3217
3313.4625	 81.3194
3313.9446	 81.3030
3314.4268	 81.2706
3314.9090	 81.2347
3315.3911	 81.2191
3315.8733	 81.2335
3316.3555	 81.2328
3316.8377	 81.2122
3317.3198	 81.1917
3317.8020	 81.1724
3318.2842	 81.1651
3318.7663	 81.1584
3319.2485	 81.1352
3319.7307	 81.1135
3320.2128	 81.1030
3320.6950	 81.0794
3321.1772	 81.0338
3321.6593	 80.9983
3322.1415	 81.0140
3322.6237	 81.0320
3323.1058	 81.0007
3323.5880	 80.9786
3324.0702	 80.9822
3324.5524	 80.9771
3325.0345	 80.9575
3325.5167	 80.9304
3325.9989	 80.9141
3326.4810	 80.9244
3326.9632	 80.9077
3327.4454	 80.8726
3327.9275	 80.8770
3328.4097	 80.8671
3328.8919	 80.8414
3329.3740	 80.8295
3329.8562	 80.8066
3330.3384	 80.7702
3330.8205	 80.7460
3331.3027	 80.7481
3331.7849	 80.7429
3332.2671	 80.7314
3332.7492	 80.7352
3333.2314	 80.7110
3333.7136	 80.6644
3334.1957	 80.6624
3334.6779	 80.6850
3335.1601	 80.6784
3335.6422	 80.6490
3336.1244	 80.6295
3336.6066	 80.6364
3337.0887	 80.6173
3337.5709	 80.5769
3338.0531	 80.5779
3338.5352	 80.5851
3339.0174	 80.5615
3339.4996	 80.5337
3339.9817	 80.5085
3340.4639	 80.4898
3340.9461	 80.4824
3341.4283	 80.4600
3341.9104	 80.4374
3342.3926	 80.4429
3342.8748	 80.4474
3343.3569	 80.4337
3343.8391	 80.4248
3344.3213	 80.4168
3344.8034	 80.3997
3345.2856	 80.3726
3345.7678	 80.3547
3346.2499	 80.3524
3346.7321	 80.3443
3347.2143	 80.3359
3347.6964	 80.3314
3348.1786	 80.3316
3348.6608	 80.3177
3349.1430	 80.2943
3349.6251	 80.2806
3350.1073	 80.2567
3350.5895	 80.2414
3351.0716	 80.2368
3351.5538	 80.2307
3352.0360	 80.2366
3352.5181	 80.2243
3353.0003	 80.1993
3353.4825	 80.1866
3353.9646	 80.1778
3354.4468	 80.1755
3354.9290	 80.1667
3355.4111	 80.1370
3355.8933	 80.1286
3356.3755	 80.1515
3356.8576	 80.1396
3357.3398	 80.1038
3357.8220	 80.0914
3358.3042	 80.0961
3358.7863	 80.0867
3359.2685	 80.0609
3359.7507	 80.0681
3360.2328	 80.0939
3360.7150	 80.0935
3361.1972	 80.0665
3361.6793	 80.0392
3362.1615	 80.0218
3362.6437	 80.0127
3363.1258	 80.0064
3363.6080	 79.9703
3364.0902	 79.9459
3364.5723	 79.9588
3365.0545	 79.9766
3365.5367	 79.9906
3366.0189	 79.9876
3366.5010	 79.9664
3366.9832	 79.9418
3367.4654	 79.9292
3367.9475	 79.9254
3368.4297	 79.9306
3368.9119	 79.9282
3369.3940	 79.9097
3369.8762	 79.8851
3370.3584	 79.8556
3370.8405	 79.8497
3371.3227	 79.8644
3371.8049	 79.8724
3372.2870	 79.8856
3372.7692	 79.8891
3373.2514	 79.8585
3373.7335	 79.8413
3374.2157	 79.8508
3374.6979	 79.8445
3375.1801	 79.8348
3375.6622	 79.8146
3376.1444	 79.7868
3376.6266	 79.7998
3377.1087	 79.8174
3377.5909	 79.8114
3378.0731	 79.8052
3378.5552	 79.7993
3379.0374	 79.7912
3379.5196	 79.7922
3380.0017	 79.8034
3380.4839	 79.7998
3380.9661	 79.7656
3381.4482	 79.7362
3381.9304	 79.7463
3382.4126	 79.7452
3382.8948	 79.7190
3383.3769	 79.7251
3383.8591	 79.7419
3384.3413	 79.7461
3384.8234	 79.7456
3385.3056	 79.7312
3385.7878	 79.7194
3386.2699	 79.7106
3386.7521	 79.7028
3387.2343	 79.7232
3387.7164	 79.7446
3388.1986	 79.7175
3388.6808	 79.6876
3389.1629	 79.7033
3389.6451	 79.7368
3390.1273	 79.7613
3390.6094	 79.7518
3391.0916	 79.7173
3391.5738	 79.7084
3392.0560	 79.7174
3392.5381	 79.7196
3393.0203	 79.7312
3393.5025	 79.7477
3393.9846	 79.7390
3394.4668	 79.7296
3394.9490	 79.7235
3395.4311	 79.6976
3395.9133	 79.6808
3396.3955	 79.6804
3396.8776	 79.7053
3397.3598	 79.7345
3397.8420	 79.7271
3398.3241	 79.7165
3398.8063	 79.7257
3399.2885	 79.7371
3399.7707	 79.7415
3400.2528	 79.7330
3400.7350	 79.7322
3401.2172	 79.7467
3401.6993	 79.7531
3402.1815	 79.7569
3402.6637	 79.7516
3403.1458	 79.7359
3403.6280	 79.7378
3404.1102	 79.7514
3404.5923	 79.7401
3405.0745	 79.7289
3405.5567	 79.7590
3406.0388	 79.7854
3406.5210	 79.7594
3407.0032	 79.7142
3407.4853	 79.7029
3407.9675	 79.7294
3408.4497	 79.7706
3408.9319	 79.7977
3409.4140	 79.7855
3409.8962	 79.7758
3410.3784	 79.8007
3410.8605	 79.8247
3411.3427	 79.8297
3411.8249	 79.8113
3412.3070	 79.8003
3412.7892	 79.8190
3413.2714	 79.8246
3413.7535	 79.7976
3414.2357	 79.7908
3414.7179	 79.8189
3415.2000	 79.8264
3415.6822	 79.8063
3416.1644	 79.8061
3416.6466	 79.8197
3417.1287	 79.8158
3417.6109	 79.8293
3418.0931	 79.8744
3418.5752	 79.8972
3419.0574	 79.8863
3419.5396	 79.8777
3420.0217	 79.8944
3420.5039	 79.9244
3420.9861	 79.9262
3421.4682	 79.9238
3421.9504	 79.9397
3422.4326	 79.9376
3422.9147	 79.9222
3423.3969	 79.9367
3423.8791	 79.9533
3424.3612	 79.9501
3424.8434	 79.9584
3425.3256	 79.9730
3425.8078	 79.9861
3426.2899	 79.9852
3426.7721	 79.9752
3427.2543	 79.9719
3427.7364	 79.9698
3428.2186	 79.9839
3428.7008	 80.0152
3429.1829	 80.0379
3429.6651	 80.0476
3430.1473	 80.0553
3430.6294	 80.0743
3431.1116	 80.0908
3431.5938	 80.0887
3432.0759	 80.0855
3432.5581	 80.1019
3433.0403	 80.1355
3433.5225	 80.1444
3434.0046	 80.1417
3434.4868	 80.1565
3434.9690	 80.1714
3435.4511	 80.1840
3435.9333	 80.2010
3436.4155	 80.2309
3436.8976	 80.2431
3437.3798	 80.2279
3437.8620	 80.2341
3438.3441	 80.2672
3438.8263	 80.2884
3439.3085	 80.2778
3439.7906	 80.2686
3440.2728	 80.2678
3440.7550	 80.2731
3441.2371	 80.2978
3441.7193	 80.3310
3442.2015	 80.3619
3442.6837	 80.3575
3443.1658	 80.3433
3443.6480	 80.3764
3444.1302	 80.4081
3444.6123	 80.4048
3445.0945	 80.4093
3445.5767	 80.4036
3446.0588	 80.3728
3446.5410	 80.4065
3447.0232	 80.5184
3447.5053	 80.5377
3447.9875	 80.4746
3448.4697	 80.4724
3448.9518	 80.5027
3449.4340	 80.5142
3449.9162	 80.5224
3450.3984	 80.5190
3450.8805	 80.5182
3451.3627	 80.5505
3451.8449	 80.5854
3452.3270	 80.6008
3452.8092	 80.6107
3453.2914	 80.6136
3453.7735	 80.6218
3454.2557	 80.6415
3454.7379	 80.6521
3455.2200	 80.6715
3455.7022	 80.6999
3456.1844	 80.7037
3456.6665	 80.7109
3457.1487	 80.7178
3457.6309	 80.7214
3458.1130	 80.7623
3458.5952	 80.7882
3459.0774	 80.7893
3459.5596	 80.8100
3460.0417	 80.8197
3460.5239	 80.8035
3461.0061	 80.7992
3461.4882	 80.8100
3461.9704	 80.8433
3462.4526	 80.9078
3462.9347	 80.9353
3463.4169	 80.9167
3463.8991	 80.9059
3464.3812	 80.9260
3464.8634	 80.9643
3465.3456	 80.9931
3465.8277	 80.9962
3466.3099	 81.0043
3466.7921	 81.0483
3467.2743	 81.0706
3467.7564	 81.0552
3468.2386	 81.0559
3468.7208	 81.0907
3469.2029	 81.1129
3469.6851	 81.1119
3470.1673	 81.1274
3470.6494	 81.1504
3471.1316	 81.1743
3471.6138	 81.1972
3472.0959	 81.2052
3472.5781	 81.2005
3473.0603	 81.2133
3473.5424	 81.2315
3474.0246	 81.2364
3474.5068	 81.2695
3474.9889	 81.3153
3475.4711	 81.3306
3475.9533	 81.3179
3476.4355	 81.3042
3476.9176	 81.3191
3477.3998	 81.3516
3477.8820	 81.3739
3478.3641	 81.3816
3478.8463	 81.3823
3479.3285	 81.3984
3479.8106	 81.4448
3480.2928	 81.4939
3480.7750	 81.5024
3481.2571	 81.4756
3481.7393	 81.4799
3482.2215	 81.5287
3482.7036	 81.5669
3483.1858	 81.5867
3483.6680	 81.5930
3484.1502	 81.6023
3484.6323	 81.6144
3485.1145	 81.6106
3485.5967	 81.6264
3486.0788	 81.6618
3486.5610	 81.6770
3487.0432	 81.6732
3487.5253	 81.6869
3488.0075	 81.7413
3488.4897	 81.7889
3488.9718	 81.7779
3489.4540	 81.7476
3489.9362	 81.7426
3490.4183	 81.7578
3490.9005	 81.7815
3491.3827	 81.8186
3491.8648	 81.8572
3492.3470	 81.8705
3492.8292	 81.8754
3493.3114	 81.8984
3493.7935	 81.9213
3494.2757	 81.9342
3494.7579	 81.9665
3495.2400	 81.9982
3495.7222	 81.9941
3496.2044	 82.0196
3496.6865	 82.0561
3497.1687	 82.0475
3497.6509	 82.0375
3498.1330	 82.0466
3498.6152	 82.0840
3499.0974	 82.1316
3499.5795	 82.1567
3500.0617	 82.1523
3500.5439	 82.1526
3501.0261	 82.1832
3501.5082	 82.2223
3501.9904	 82.2410
3502.4726	 82.2665
3502.9547	 82.3324
3503.4369	 82.3454
3503.9191	 82.3061
3504.4012	 82.3188
3504.8834	 82.3436
3505.3656	 82.3471
3505.8477	 82.3470
3506.3299	 82.3517
3506.8121	 82.3720
3507.2942	 82.3973
3507.7764	 82.4114
3508.2586	 82.4184
3508.7408	 82.4483
3509.2229	 82.5195
3509.7051	 82.5647
3510.1873	 82.5210
3510.6694	 82.4782
3511.1516	 82.5100
3511.6338	 82.5633
3512.1159	 82.5783
3512.5981	 82.5879
3513.0803	 82.5985
3513.5624	 82.6248
3514.0446	 82.6733
3514.5268	 82.6700
3515.0089	 82.6723
3515.4911	 82.7081
3515.9733	 82.6902
3516.4554	 82.6578
3516.9376	 82.6933
3517.4198	 82.7527
3517.9020	 82.7582
3518.3841	 82.7742
3518.8663	 82.8326
3519.3485	 82.8493
3519.8306	 82.8360
3520.3128	 82.8425
3520.7950	 82.8690
3521.2771	 82.9040
3521.7593	 82.9061
3522.2415	 82.9042
3522.7236	 82.9759
3523.2058	 83.0336
3523.6880	 83.0437
3524.1701	 83.0734
3524.6523	 83.0673
3525.1345	 83.0717
3525.6167	 83.1058
3526.0988	 83.0634
3526.5810	 83.0505
3527.0632	 83.1233
3527.5453	 83.1616
3528.0275	 83.1663
3528.5097	 83.1983
3528.9918	 83.2669
3529.4740	 83.2822
3529.9562	 83.2386
3530.4383	 83.2517
3530.9205	 83.3119
3531.4027	 83.3167
3531.8848	 83.2912
3532.3670	 83.2925
3532.8492	 83.2970
3533.3313	 83.2923
3533.8135	 83.3108
3534.2957	 83.3415
3534.7779	 83.3494
3535.2600	 83.3626
3535.7422	 83.4154
3536.2244	 83.4799
3536.7065	 83.4958
3537.1887	 83.4918
3537.6709	 83.5070
3538.1530	 83.5230
3538.6352	 83.5262
3539.1174	 83.5249
3539.5995	 83.5259
3540.0817	 83.5323
3540.5639	 83.5535
3541.0460	 83.5872
3541.5282	 83.5982
3542.0104	 83.5771
3542.4926	 83.5950
3542.9747	 83.6466
3543.4569	 83.6864
3543.9391	 83.7078
3544.4212	 83.7325
3544.9034	 83.8354
3545.3856	 83.8904
3545.8677	 83.7840
3546.3499	 83.7496
3546.8321	 83.8788
3547.3142	 83.9239
3547.7964	 83.8512
3548.2786	 83.8363
3548.7607	 83.8615
3549.2429	 83.8728
3549.7251	 83.8896
3550.2072	 83.9133
3550.6894	 83.9104
3551.1716	 83.8996
3551.6538	 83.9495
3552.1359	 84.0477
3552.6181	 84.0251
3553.1003	 83.9546
3553.5824	 83.9858
3554.0646	 84.0153
3554.5468	 83.9739
3555.0289	 83.9728
3555.5111	 84.0249
3555.9933	 84.0449
3556.4754	 84.0423
3556.9576	 84.0597
3557.4398	 84.0917
3557.9219	 84.1016
3558.4041	 84.0748
3558.8863	 84.0610
3559.3685	 84.1069
3559.8506	 84.1926
3560.3328	 84.2095
3560.8150	 84.1621
3561.2971	 84.1531
3561.7793	 84.1725
3562.2615	 84.1859
3562.7436	 84.1733
3563.2258	 84.2090
3563.7080	 84.2897
3564.1901	 84.2803
3564.6723	 84.2078
3565.1545	 84.2129
3565.6366	 84.3206
3566.1188	 84.4235
3566.6010	 84.4186
3567.0831	 84.2657
3567.5653	 84.2965
3568.0475	 84.5960
3568.5297	 84.5690
3569.0118	 84.3709
3569.4940	 84.3736
3569.9762	 84.4739
3570.4583	 84.4694
3570.9405	 84.3589
3571.4227	 84.3549
3571.9048	 84.4763
3572.3870	 84.5065
3572.8692	 84.3749
3573.3513	 84.3191
3573.8335	 84.5033
3574.3157	 84.6314
3574.7978	 84.4686
3575.2800	 84.3125
3575.7622	 84.4315
3576.2444	 84.6126
3576.7265	 84.5508
3577.2087	 84.3852
3577.6909	 84.5113
3578.1730	 84.7270
3578.6552	 84.5835
3579.1374	 84.2793
3579.6195	 84.3715
3580.1017	 84.7097
3580.5839	 84.6062
3581.0660	 84.1960
3581.5482	 84.2180
3582.0304	 84.6113
3582.5125	 84.5473
3582.9947	 84.1112
3583.4769	 84.2007
3583.9590	 84.6360
3584.4412	 84.4757
3584.9234	 83.9328
3585.4056	 83.9323
3585.8877	 84.4469
3586.3699	 84.5612
3586.8521	 84.0775
3587.3342	 84.1844
3587.8164	 84.5903
3588.2986	 84.4692
3588.7807	 83.9445
3589.2629	 84.1958
3589.7451	 84.5099
3590.2272	 83.9643
3590.7094	 83.3354
3591.1916	 83.8043
3591.6737	 84.2719
3592.1559	 83.5690
3592.6381	 82.9728
3593.1203	 83.7478
3593.6024	 84.1138
3594.0846	 83.2112
3594.5668	 82.9501
3595.0489	 83.9254
3595.5311	 84.0568
3596.0133	 83.2978
3596.4954	 83.6660
3596.9776	 84.3265
3597.4598	 83.7879
3597.9419	 83.0993
3598.4241	 83.7756
3598.9063	 84.1985
3599.3884	 83.3780
3599.8706	 83.2142
3600.3528	 84.1161
3600.8349	 83.9664
3601.3171	 83.1965
3601.7993	 83.7751
3602.2815	 84.3957
3602.7636	 83.8264
3603.2458	 83.6217
3603.7280	 84.3814
3604.2101	 84.3247
3604.6923	 83.6926
3605.1745	 84.1608
3605.6566	 84.7112
3606.1388	 84.1311
3606.6210	 83.9012
3607.1031	 84.8131
3607.5853	 84.8454
3608.0675	 84.4034
3608.5496	 84.7466
3609.0318	 85.3618
3609.5140	 85.2935
3609.9962	 85.4288
3610.4783	 85.7438
3610.9605	 85.7212
3611.4427	 85.6677
3611.9248	 85.9901
3612.4070	 86.4654
3612.8892	 86.4930
3613.3713	 86.2074
3613.8535	 86.0814
3614.3357	 86.0693
3614.8178	 85.8541
3615.3000	 85.7214
3615.7822	 85.6898
3616.2643	 85.2732
3616.7465	 84.9368
3617.2287	 85.1993
3617.7108	 85.1524
3618.1930	 84.8538
3618.6752	 85.2953
3619.1574	 85.8769
3619.6395	 86.0922
3620.1217	 85.7226
3620.6039	 84.9321
3621.0860	 84.4451
3621.5682	 84.7033
3622.0504	 84.4192
3622.5325	 83.9214
3623.0147	 84.2761
3623.4969	 84.1942
3623.9790	 83.8842
3624.4612	 84.2987
3624.9434	 84.1034
3625.4255	 83.8052
3625.9077	 84.2202
3626.3899	 84.0102
3626.8721	 84.0107
3627.3542	 84.4531
3627.8364	 84.0317
3628.3186	 83.8875
3628.8007	 84.6338
3629.2829	 84.6741
3629.7651	 84.8413
3630.2472	 84.6359
3630.7294	 84.6418
3631.2116	 84.9653
3631.6937	 84.8724
3632.1759	 84.9848
3632.6581	 85.1485
3633.1402	 84.9206
3633.6224	 85.1529
3634.1046	 85.3997
3634.5867	 85.5399
3635.0689	 85.7412
3635.5511	 85.7066
3636.0333	 85.8550
3636.5154	 85.9593
3636.9976	 86.0269
3637.4798	 86.1853
3637.9619	 86.2572
3638.4441	 86.4002
3638.9263	 86.4600
3639.4084	 86.5493
3639.8906	 86.6576
3640.3728	 86.7037
3640.8549	 86.7899
3641.3371	 86.8905
3641.8193	 86.9984
3642.3014	 87.0677
3642.7836	 87.1656
3643.2658	 87.2321
3643.7480	 87.2400
3644.2301	 87.2731
3644.7123	 87.3112
3645.1945	 87.3337
3645.6766	 87.3739
3646.1588	 87.4145
3646.6410	 87.5056
3647.1231	 87.7877
3647.6053	 87.8807
3648.0875	 87.6725
3648.5696	 87.6020
3649.0518	 87.8999
3649.5340	 88.0271
3650.0161	 87.8063
3650.4983	 87.8733
3650.9805	 88.1214
3651.4626	 88.0946
3651.9448	 87.9078
3652.4270	 87.7962
3652.9092	 87.7835
3653.3913	 87.7842
3653.8735	 87.7851
3654.3557	 87.7891
3654.8378	 87.7531
3655.3200	 87.7178
3655.8022	 87.8738
3656.2843	 88.2170
3656.7665	 88.1454
3657.2487	 87.9506
3657.7308	 87.8821
3658.2130	 87.8754
3658.6952	 87.8701
3659.1773	 87.8554
3659.6595	 87.8998
3660.1417	 87.9738
3660.6239	 87.9699
3661.1060	 87.9212
3661.5882	 87.9455
3662.0704	 88.0112
3662.5525	 87.9989
3663.0347	 87.9363
3663.5169	 87.8814
3663.9990	 87.8774
3664.4812	 87.9657
3664.9634	 88.0328
3665.4455	 87.9884
3665.9277	 87.9444
3666.4099	 87.9760
3666.8920	 88.0135
3667.3742	 87.9626
3667.8564	 87.8409
3668.3385	 87.9106
3668.8207	 88.2107
3669.3029	 88.1631
3669.7851	 87.9403
3670.2672	 87.9725
3670.7494	 88.4343
3671.2316	 88.4035
3671.7137	 88.0868
3672.1959	 87.8596
3672.6781	 87.8108
3673.1602	 87.9264
3673.6424	 87.9809
3674.1246	 87.8569
3674.6067	 87.7770
3675.0889	 88.0798
3675.5711	 88.4061
3676.0532	 88.1548
3676.5354	 87.7444
3677.0176	 87.8414
3677.4998	 88.0511
3677.9819	 87.8455
3678.4641	 87.3913
3678.9463	 87.3613
3679.4284	 87.8524
3679.9106	 87.8196
3680.3928	 87.3108
3680.8749	 87.2208
3681.3571	 87.6345
3681.8393	 87.7047
3682.3214	 87.1738
3682.8036	 86.9062
3683.2858	 87.3671
3683.7679	 87.6584
3684.2501	 87.1198
3684.7323	 86.6419
3685.2145	 87.0952
3685.6966	 87.5158
3686.1788	 86.9590
3686.6610	 86.3224
3687.1431	 86.7054
3687.6253	 87.4806
3688.1075	 87.7968
3688.5896	 87.7965
3689.0718	 87.7772
3689.5540	 87.5118
3690.0361	 86.6415
3690.5183	 85.6768
3691.0005	 86.2266
3691.4826	 86.9551
3691.9648	 85.9072
3692.4470	 85.3297
3692.9291	 86.2382
3693.4113	 86.7840
3693.8935	 85.6650
3694.3757	 85.0290
3694.8578	 86.0920
3695.3400	 86.4618
3695.8222	 85.2092
3696.3043	 84.8501
3696.7865	 86.0793
3697.2687	 86.0729
3697.7508	 84.7455
3698.2330	 84.9117
3698.7152	 86.0960
3699.1973	 85.5487
3699.6795	 84.3590
3700.1617	 85.1329
3700.6438	 86.2123
3701.1260	 85.5136
3701.6082	 84.8546
3702.0904	 85.9988
3702.5725	 85.7296
3703.0547	 84.3913
3703.5369	 84.6191
3704.0190	 85.8291
3704.5012	 85.2866
3704.9834	 84.3185
3705.4655	 85.2684
3705.9477	 85.9350
3706.4299	 84.9706
3706.9120	 84.9168
3707.3942	 85.9735
3707.8764	 85.7162
3708.3585	 84.8018
3708.8407	 85.2635
3709.3229	 85.9161
3709.8050	 85.3540
3710.2872	 85.8010
3710.7694	 86.6500
3711.2516	 86.3795
3711.7337	 85.8187
3712.2159	 86.7907
3712.6981	 87.3331
3713.1802	 87.1947
3713.6624	 87.4653
3714.1446	 87.8452
3714.6267	 87.8916
3715.1089	 87.6350
3715.5911	 87.4651
3716.0732	 87.4314
3716.5554	 87.0689
3717.0376	 86.6354
3717.5197	 86.7226
3718.0019	 86.5489
3718.4841	 85.8857
3718.9663	 85.9745
3719.4484	 86.0283
3719.9306	 85.3894
3720.4128	 85.4896
3720.8949	 85.5886
3721.3771	 84.6364
3721.8593	 84.3683
3722.3414	 84.7948
3722.8236	 84.3779
3723.3058	 84.7141
3723.7879	 84.8326
3724.2701	 83.9060
3724.7523	 83.9964
3725.2344	 84.3389
3725.7166	 83.6629
3726.1988	 83.7359
3726.6809	 83.6148
3727.1631	 83.3562
3727.6453	 84.0855
3728.1275	 83.9441
3728.6096	 83.7226
3729.0918	 84.2043
3729.5740	 83.9079
3730.0561	 83.9375
3730.5383	 84.2333
3731.0205	 83.8375
3731.5026	 84.6008
3731.9848	 86.3426
3732.4670	 86.2152
3732.9491	 85.1660
3733.4313	 84.4190
3733.9135	 84.7507
3734.3956	 85.5040
3734.8778	 85.3741
3735.3600	 85.0078
3735.8422	 84.6836
3736.3243	 85.1355
3736.8065	 85.9247
3737.2887	 86.0893
3737.7708	 86.1013
3738.2530	 86.0953
3738.7352	 86.2898
3739.2173	 86.3916
3739.6995	 86.4715
3740.1817	 86.5991
3740.6638	 86.8735
3741.1460	 87.3518
3741.6282	 87.4264
3742.1103	 87.2621
3742.5925	 87.2398
3743.0747	 87.2443
3743.5568	 87.1603
3744.0390	 87.4416
3744.5212	 88.6639
3745.0034	 88.4327
3745.4855	 88.0773
3745.9677	 87.9925
3746.4499	 88.0151
3746.9320	 88.0329
3747.4142	 88.0779
3747.8964	 88.0695
3748.3785	 88.0072
3748.8607	 88.1483
3749.3429	 88.6629
3749.8250	 88.6575
3750.3072	 88.3949
3750.7894	 88.2511
3751.2715	 88.1965
3751.7537	 88.3724
3752.2359	 88.8680
3752.7181	 88.7089
3753.2002	 88.4506
3753.6824	 88.3675
3754.1646	 88.3370
3754.6467	 88.3372
3755.1289	 88.3295
3755.6111	 88.2951
3756.0932	 88.3591
3756.5754	 88.5445
3757.0576	 88.5386
3757.5397	 88.3943
3758.0219	 88.3250
3758.5041	 88.3364
3758.9862	 88.3992
3759.4684	 88.5566
3759.9506	 88.6364
3760.4327	 88.4816
3760.9149	 88.3658
3761.3971	 88.3251
3761.8793	 88.3297
3762.3614	 88.3675
3762.8436	 88.3675
3763.3258	 88.3578
3763.8079	 88.3440
3764.2901	 88.2979
3764.7723	 88.2610
3765.2544	 88.3608
3765.7366	 88.5618
3766.2188	 88.5268
3766.7009	 88.4080
3767.1831	 88.3570
3767.6653	 88.3279
3768.1474	 88.3105
3768.6296	 88.2879
3769.1118	 88.3047
3769.5940	 88.5275
3770.0761	 88.6743
3770.5583	 88.4846
3771.0405	 88.3785
3771.5226	 88.3598
3772.0048	 88.3593
3772.4870	 88.3423
3772.9691	 88.3226
3773.4513	 88.3273
3773.9335	 88.3246
3774.4156	 88.3211
3774.8978	 88.3177
3775.3800	 88.3258
3775.8621	 88.3497
3776.3443	 88.3522
3776.8265	 88.3251
3777.3086	 88.3115
3777.7908	 88.3109
3778.2730	 88.2713
3778.7552	 88.2667
3779.2373	 88.4455
3779.7195	 88.5806
3780.2017	 88.4480
3780.6838	 88.3379
3781.1660	 88.3110
3781.6482	 88.3156
3782.1303	 88.3153
3782.6125	 88.3122
3783.0947	 88.2995
3783.5768	 88.2685
3784.0590	 88.3042
3784.5412	 88.3950
3785.0233	 88.4115
3785.5055	 88.3729
3785.9877	 88.3549
3786.4699	 88.3664
3786.9520	 88.3685
3787.4342	 88.3586
3787.9164	 88.3294
3788.3985	 88.2889
3788.8807	 88.2843
3789.3629	 88.2997
3789.8450	 88.2964
3790.3272	 88.2911
3790.8094	 88.2899
3791.2915	 88.2782
3791.7737	 88.2980
3792.2559	 88.3323
3792.7380	 88.3315
3793.2202	 88.3207
3793.7024	 88.3241
3794.1845	 88.3299
3794.6667	 88.3196
3795.1489	 88.2691
3795.6311	 88.2361
3796.1132	 88.3949
3796.5954	 88.5303
3797.0776	 88.4141
3797.5597	 88.3774
3798.0419	 88.3784
3798.5241	 88.3381
3799.0062	 88.3058
3799.4884	 88.2802
3799.9706	 88.2613
3800.4527	 88.2647
3800.9349	 88.4938
3801.4171	 88.9080
3801.8992	 88.6950
3802.3814	 88.4510
3802.8636	 88.4252
3803.3458	 88.3945
3803.8279	 88.3203
3804.3101	 88.3074
3804.7923	 88.3054
3805.2744	 88.2825
3805.7566	 88.2336
3806.2388	 88.2108
3806.7209	 88.4676
3807.2031	 88.7356
3807.6853	 88.5160
3808.1674	 88.3582
3808.6496	 88.3275
3809.1318	 88.3187
3809.6139	 88.3035
3810.0961	 88.2868
3810.5783	 88.2721
3811.0604	 88.2663
3811.5426	 88.3006
3812.0248	 88.3233
3812.5070	 88.3020
3812.9891	 88.3016
3813.4713	 88.3101
3813.9535	 88.2728
3814.4356	 88.2194
3814.9178	 88.1822
3815.4000	 88.2659
3815.8821	 88.7260
3816.3643	 88.8763
3816.8465	 88.5334
3817.3286	 88.3311
3817.8108	 88.2838
3818.2930	 88.3303
3818.7751	 88.3247
3819.2573	 88.2630
3819.7395	 88.2276
3820.2217	 88.3489
3820.7038	 88.5768
3821.1860	 88.6409
3821.6682	 88.7121
3822.1503	 88.6157
3822.6325	 88.4350
3823.1147	 88.3628
3823.5968	 88.3255
3824.0790	 88.2962
3824.5612	 88.2799
3825.0433	 88.2675
3825.5255	 88.2567
3826.0077	 88.2690
3826.4898	 88.4048
3826.9720	 88.4648
3827.4542	 88.3341
3827.9363	 88.2932
3828.4185	 88.3056
3828.9007	 88.2801
3829.3829	 88.2701
3829.8650	 88.2661
3830.3472	 88.2292
3830.8294	 88.2185
3831.3115	 88.3710
3831.7937	 88.5258
3832.2759	 88.4136
3832.7580	 88.3215
3833.2402	 88.2743
3833.7224	 88.1829
3834.2045	 88.1858
3834.6867	 88.4304
3835.1689	 88.5779
3835.6510	 88.4228
3836.1332	 88.2860
3836.6154	 88.2082
3837.0976	 88.2505
3837.5797	 88.6275
3838.0619	 88.9103
3838.5441	 88.5764
3839.0262	 88.3568
3839.5084	 88.3458
3839.9906	 88.3765
3840.4727	 88.3896
3840.9549	 88.4982
3841.4371	 88.5003
3841.9192	 88.3680
3842.4014	 88.2327
3842.8836	 88.1885
3843.3657	 88.3411
3843.8479	 88.4647
3844.3301	 88.3664
3844.8122	 88.2870
3845.2944	 88.2577
3845.7766	 88.2574
3846.2588	 88.2927
3846.7409	 88.3006
3847.2231	 88.2816
3847.7053	 88.2720
3848.1874	 88.2484
3848.6696	 88.2322
3849.1518	 88.2785
3849.6339	 88.3484
3850.1161	 88.3461
3850.5983	 88.2812
3851.0804	 88.2303
3851.5626	 88.3677
3852.0448	 88.6480
3852.5269	 88.4799
3853.0091	 88.2791
3853.4913	 88.3427
3853.9735	 89.0487
3854.4556	 89.1382
3854.9378	 88.6333
3855.4200	 88.3879
3855.9021	 88.2642
3856.3843	 88.2431
3856.8665	 88.3949
3857.3486	 88.5125
3857.8308	 88.3852
3858.3130	 88.2810
3858.7951	 88.2681
3859.2773	 88.2633
3859.7595	 88.2482
3860.2416	 88.2276
3860.7238	 88.2046
3861.2060	 88.2744
3861.6882	 88.4578
3862.1703	 88.4198
3862.6525	 88.2864
3863.1347	 88.2471
3863.6168	 88.2072
3864.0990	 88.2193
3864.5812	 88.4314
3865.0633	 88.6516
3865.5455	 88.5094
3866.0277	 88.3378
3866.5098	 88.2566
3866.9920	 88.2141
3867.4742	 88.2185
3867.9563	 88.2275
3868.4385	 88.2545
3868.9207	 88.3409
3869.4028	 88.4345
3869.8850	 88.6189
3870.3672	 88.6094
3870.8494	 88.4219
3871.3315	 88.3788
3871.8137	 88.3393
3872.2959	 88.2547
3872.7780	 88.1917
3873.2602	 88.1788
3873.7424	 88.3532
3874.2245	 88.5949
3874.7067	 88.4884
3875.1889	 88.3068
3875.6710	 88.2400
3876.1532	 88.2434
3876.6354	 88.2676
3877.1175	 88.2673
3877.5997	 88.2467
3878.0819	 88.2286
3878.5641	 88.2106
3879.0462	 88.1612
3879.5284	 88.1833
3880.0106	 88.4269
3880.4927	 88.5857
3880.9749	 88.4694
3881.4571	 88.3588
3881.9392	 88.2822
3882.4214	 88.2398
3882.9036	 88.2774
3883.3857	 88.3143
3883.8679	 88.2581
3884.3501	 88.1726
3884.8322	 88.1398
3885.3144	 88.3740
3885.7966	 88.7173
3886.2787	 88.4980
3886.7609	 88.2852
3887.2431	 88.2015
3887.7253	 88.1591
3888.2074	 88.1838
3888.6896	 88.2315
3889.1718	 88.2531
3889.6539	 88.2230
3890.1361	 88.1244
3890.6183	 88.1333
3891.1004	 88.4402
3891.5826	 88.5678
3892.0648	 88.3625
3892.5469	 88.2626
3893.0291	 88.2084
3893.5113	 88.1688
3893.9934	 88.2021
3894.4756	 88.2428
3894.9578	 88.2419
3895.4400	 88.2260
3895.9221	 88.2149
3896.4043	 88.1963
3896.8865	 88.1837
3897.3686	 88.2162
3897.8508	 88.2281
3898.3330	 88.1524
3898.8151	 88.2328
3899.2973	 88.5237
3899.7795	 88.4596
3900.2616	 88.2632
3900.7438	 88.1286
3901.2260	 88.1504
3901.7081	 88.4773
3902.1903	 88.5423
3902.6725	 88.2967
3903.1546	 88.1476
3903.6368	 88.2090
3904.1190	 88.5040
3904.6012	 88.4852
3905.0833	 88.3005
3905.5655	 88.2772
3906.0477	 88.3442
3906.5298	 88.3269
3907.0120	 88.2459
3907.4942	 88.2213
3907.9763	 88.2042
3908.4585	 88.1800
3908.9407	 88.1833
3909.4228	 88.2056
3909.9050	 88.2126
3910.3872	 88.1835
3910.8693	 88.1668
3911.3515	 88.1926
3911.8337	 88.2315
3912.3159	 88.2127
3912.7980	 88.1870
3913.2802	 88.1941
3913.7624	 88.1953
3914.2445	 88.1988
3914.7267	 88.1975
3915.2089	 88.1853
3915.6910	 88.1794
3916.1732	 88.1933
3916.6554	 88.2527
3917.1375	 88.3598
3917.6197	 88.3299
3918.1019	 88.2387
3918.5840	 88.2097
3919.0662	 88.1567
3919.5484	 88.1886
3920.0305	 88.3487
3920.5127	 88.3408
3920.9949	 88.2295
3921.4771	 88.2084
3921.9592	 88.2348
3922.4414	 88.2458
3922.9236	 88.2435
3923.4057	 88.2514
3923.8879	 88.2278
3924.3701	 88.2121
3924.8522	 88.2868
3925.3344	 88.3116
3925.8166	 88.2421
3926.2987	 88.1833
3926.7809	 88.1646
3927.2631	 88.1841
3927.7452	 88.1987
3928.2274	 88.2022
3928.7096	 88.2038
3929.1918	 88.2100
3929.6739	 88.2092
3930.1561	 88.2202
3930.6383	 88.2440
3931.1204	 88.2016
3931.6026	 88.1738
3932.0848	 88.2585
3932.5669	 88.3074
3933.0491	 88.2281
3933.5313	 88.1800
3934.0134	 88.1866
3934.4956	 88.1801
3934.9778	 88.1874
3935.4599	 88.1966
3935.9421	 88.1766
3936.4243	 88.1622
3936.9064	 88.1731
3937.3886	 88.2050
3937.8708	 88.2235
3938.3530	 88.1786
3938.8351	 88.1219
3939.3173	 88.1387
3939.7995	 88.1896
3940.2816	 88.2063
3940.7638	 88.1905
3941.2460	 88.1321
3941.7281	 88.0797
3942.2103	 88.1897
3942.6925	 88.3745
3943.1746	 88.3241
3943.6568	 88.1927
3944.1390	 88.1868
3944.6211	 88.2050
3945.1033	 88.1825
3945.5855	 88.1690
3946.0677	 88.1163
3946.5498	 88.0851
3947.0320	 88.1491
3947.5142	 88.2018
3947.9963	 88.1926
3948.4785	 88.1686
3948.9607	 88.1512
3949.4428	 88.1835
3949.9250	 88.2560
3950.4072	 88.2568
3950.8893	 88.1965
3951.3715	 88.1450
3951.8537	 88.1071
3952.3358	 88.1035
3952.8180	 88.1527
3953.3002	 88.1910
3953.7823	 88.1714
3954.2645	 88.1505
3954.7467	 88.1638
3955.2289	 88.1920
3955.7110	 88.2063
3956.1932	 88.1863
3956.6754	 88.1727
3957.1575	 88.1687
3957.6397	 88.1596
3958.1219	 88.1798
3958.6040	 88.1872
3959.0862	 88.1584
3959.5684	 88.1323
3960.0505	 88.1279
3960.5327	 88.1229
3961.0149	 88.1216
3961.4970	 88.1625
3961.9792	 88.1991
3962.4614	 88.1737
3962.9436	 88.1438
3963.4257	 88.1591
3963.9079	 88.1719
3964.3901	 88.1598
3964.8722	 88.1474
3965.3544	 88.1591
3965.8366	 88.1879
3966.3187	 88.1722
3966.8009	 88.1445
3967.2831	 88.1587
3967.7652	 88.1662
3968.2474	 88.1543
3968.7296	 88.1651
3969.2117	 88.1870
3969.6939	 88.1658
3970.1761	 88.1310
3970.6582	 88.1345
3971.1404	 88.1336
3971.6226	 88.1402
3972.1048	 88.1927
3972.5869	 88.2174
3973.0691	 88.1991
3973.5513	 88.1726
3974.0334	 88.1548
3974.5156	 88.1667
3974.9978	 88.1801
3975.4799	 88.1852
3975.9621	 88.1912
3976.4443	 88.1790
3976.9264	 88.1508
3977.4086	 88.1401
3977.8908	 88.1413
3978.3729	 88.1165
3978.8551	 88.0969
3979.3373	 88.1074
3979.8195	 88.1196
3980.3016	 88.1458
3980.7838	 88.1741
3981.2660	 88.1535
3981.7481	 88.1324
3982.2303	 88.1411
3982.7125	 88.1341
3983.1946	 88.1380
3983.6768	 88.1506
3984.1590	 88.1607
3984.6411	 88.1717
3985.1233	 88.1544
3985.6055	 88.1377
3986.0876	 88.1409
3986.5698	 88.1460
3987.0520	 88.1395
3987.5341	 88.1299
3988.0163	 88.1532
3988.4985	 88.1655
3988.9807	 88.1388
3989.4628	 88.1387
3989.9450	 88.1663
3990.4272	 88.1820
3990.9093	 88.1720
3991.3915	 88.1481
3991.8737	 88.1340
3992.3558	 88.1395
3992.8380	 88.1488
3993.3202	 88.1507
3993.8023	 88.1435
3994.2845	 88.1380
3994.7667	 88.1647
3995.2488	 88.1834
3995.7310	 88.1728
3996.2132	 88.1697
3996.6954	 88.1764
3997.1775	 88.1576
3997.6597	 88.1195
3998.1419	 88.1233
3998.6240	 88.1496
3999.1062	 88.1588
3999.5884	 88.1483
4000.0705	 88.1389
# Legacy Status=-8217
# Legacy Status Spare=0
# Inst. Status=1
# Inst. Status Extended=1
# Inst. TimeStamp=2517712[10 usec]
# Inst. Sweep Counter=21437005
# Inst. DSP Error=0
# Inst. Direction=1
# Inst. Resolution=0[Index]
# Inst. Time Tnd=60[msec]
# Inst. Npts=32768
# Inst. Speed Selected=5231[fringes/sec]
# Inst. Speed Average=0.393431425094604[cm/s]
# Inst. Speed RMS=0.478989273309708[%]
# Inst. Time Acq Real=5.28716707229614[sec]
# Inst. Time Tnd Real=0.0600000061094761[sec]
# Inst. Limit Window Low=-27297[half fringes]
# Inst. Limit Window High=27297[half fringes]
# Inst. Limit Tnd Low=-27595[half fringes]
# Inst. Limit Tnd High=27595[half fringes]
# Inst. ZPD Offset=0[data points]
# Inst. Spc Start=0[data points]
# Inst. Spc Npts=32768
# Inst. OP Band Flag=1
# Inst. OPD Max=6.04738473892212[cm]
# Inst. Sweep Counter Rejected=0
# Inst. Speed Reset Threshold=0.800000011920929[%]
# Inst. Laser Wavenumber=13121.8701171875[cm-1]
# Inst. Laser Type=1
# Preamp ADC Channel=0
# Preamp Detector ID=0
# Preamp Sampling Factor=0
# Preamp 2nd Stage Gain=0
# Preamp 1st Stage Gain=3
# Preamp Saturation=0
# Preamp ADC Overflow=0
# Preamp ADC Minimum RAW=-1124209[ADC counts]
# Preamp ADC Maximum RAW=2842735[ADC counts]
# Preamp Bias Current=0[ADC counts]
# Met. Laser Phase=95[degrees]
# Met. Amplitude F=35[%ADC]
# Met. Amplitude D=37[%ADC]
# Met. White Light Power=0
# Met. White Light Level=0
# IR Source Power=1
# IR Source Level=0
# IR Source Power Delay Cnt=-1[sec]
# Data ZC Offset=-13648.5[data points]
# Data Delay Matching Total=1318300[nSec]
# Data ADC Frequency=19531.25[Hz]
# Data Laser Ratio=0.830513894557953
# Data HFringe Factor=2
# Data Mean DC=-0.0010257923277095[volts]
# Data Nb Pts OPD=27296
# Data Nb Pts IGM=103260
# Data Nb Pts Total=65536
# Data FPGA clock=100000000[Hz]
# Data ADC Max Norm=3.27500009536743[volts]
# Data ADC Bits=24[bits]
# Data Remove DC Flag=1
# Data Phase Correction=1
# Data PhCorr Window Length=201
# Data Apodization Type=1
# Data Type=1
# Data ZPD Position=4924[half fringes]
# Data ADC Min Interpolated=-0.441330283880234[volts]
# Data ADC Min Zero-Crossing=32757.5[half fringes]
# Data ADC Max Interpolated=1.11018443107605[volts]
# Data ADC Max Zero-Crossing=32762[half fringes]
# Data Preamp Decimation Factor=4
# Data Preamp Clock=50000000[Hz]
# Data Preamp Freq Div=256
# Data Spc Adj. Absolute=-6.60810292174574E-06[1-ratio]
# Data Spc Adj. User=0[1-ratio]
# Data Laser Ratio Total=-0.169469982385635[1-ratio]
# Data Process Time=1381320[uSec]
# Data  Spc Adj. Accessory=0[1-ratio]
# Data Spc Adj. Temperature=1.09326474557747E-05[1-ratio]
# Data Preamp ADC Coupling=2
# Data Delay Matching ADC=1120000[nSec]
# Data Delay Matching Detector=198300[nSec]
# Data Delay Matching Metrology=0[nSec]
# Coadd Nb of Measurement=1
# Coadd Measurement Count=1
# Coadd Nb of coadditions=16
# Coadd Fwd Counter=0
# Coadd Rev Counter=0
# Coadd State=2
# Coadd Intermediate xmit Factor=1
# Coadd AddfwdRev=1
# Coadd Sendcoaddeddata=1
# Coadd Divide Factor=0.0625
# Coadd Fwd Rejected Sweep=0
# Coadd Rev Rejected Sweep=0
# Coadd Delay Interval=60000[mSec]
# VCSEL Temp Board=44.9921875[degrees C]
# VCSEL Voltage Laser=2.08194088935852[volts]
# VCSEL Voltage REF=2.31914234161377[volts]
# VCSEL TEC Drive Out Diode=0.0145021537318826[volts]
# VCSEL Voltage LED=1.18223035335541[volts]
# VCSEL Temp Diode=34.999870300293[degrees C]
# VCSEL TEC Temp Setpoint=34.999870300293[degrees C]
# VCSEL TEC Startup Temp=20[degrees C]
# VCSEL TEC Temp Hysteresis=0.5[degrees C]
# VCSEL Type=1
# VCSEL Spc Drift Last Corr=0.00159875699318945[cm-1]
# VCSEL Config=16
# VCSEL Sampling Grid Wavenumber=15799.7001953125[cm-1]
# VCSEL Spc Drift Corr Timer=13863996[sec]
# VCSEL Calib Led Power=0
# VCSEL Mux Mode=0
# VCSEL Calib LED max=2.79974913597107[volts]
# VCSEL Spc Drift Corr Timer Limit=15552000[sec]
# VCSEL Calib Nb Coadd=40
# VCSEL Spc drift Total=1.50974183270591E-05[1-ratio]
# VCSEL Temp Last Calibration=43.8671875
# VCSEL Temp Slope Correction=-0.0163465905934572
# VCSEL Temp Offset Correction=0.655662178993225
# VCSEL LED 2sigma criteria=0.0125000001862645[cm-1]
# VCSEL LED 2sigma=0.0161861144006252[cm-1]
# VCSEL Calib Nb Coadd DONE=77
# VCSEL CalibTime After Startup=14400[sec]
# VCSEL Free Running Counter=15466316[sec]
# Inst. ETRAX Error=0
# Inst. Interferometer Temperature=32[degrees C]
# Inst. Usage Timer=39933[hours]
# Inst. Gain Scaled=0
# Inst. Time Host Sec=1552494322[sec]
# Inst. Time Host uSec=179271[			uSec ]
# Det. Preamp Serial ID=192
# Det. Photodiode temp=-9999[degrees C]
# Det. TEC Voltage=0[volts]
# Det. TEC Setpoint=0[degrees C]
# Det. TEC Power=0
# Det. Last delay matching calib time=0[hours]
# Spare Optic Temperature=0[degrees C]
# IR Nominal Time=43910[hours]
# IR OverPower Use Time=0[hours]
# IR UnderPower Use Time=3[hours]
# IR Source Current=1.28757202625275[amp]
# IR Source Voltage=11.4860305786133[volts]
# IR Elec Temperature=34.0000076293945[degrees C]
# EBOX  BMXS Board Temperature=28[degrees C]
# EBOX Temperature=29[degrees C]
# EBOX +15V value=15[volts]
# EBOX -15V value=-15[volts]
# EBOX +5V value=5[volts]
# Metrology use time=39933[hours]
# VCSEL Last Spec Drift Cal Date=36086[hours]
# USB Connection=0
# USB Unused 0=0
# USB Unused 1=0
# USB Unused 2=0
# USB Unused 3=0
# USB Unused 4=0
# USB Unused 5=0
# USB Unused 6=0
# USB Unused 7=0
# USB Unused 8=0
# USB Unused 9=0
# (c) FW ETRAX Main Frame Version Major=5
# (c) FW ETRAX Main Frame Version Minor=9
# (c) FW ETRAX FPGA Driver Version Major=2
# (c) FW ETRAX FPGA Driver Version Minor=5
# (c) FW BMXS FPGA Version Major=15
# (c) FW BMXS FPGA Version Minor=1
# (c) FW BMXS DSP Version=501
# (c) FW OS Version Major=2
# (c) FW OS Version Minor=6
# (c) FW OS Version Release=19
# (c) FW OS Version Build=0
# (c) FW Met. Version Major=15
# (c) FW Met. Version Minor=11
# (c) Det. Preamp Factory Serial ID=192
# (c) Det. Serial ID Part#1=1315458
# (c) Det. Serial ID Part#2=1
# (c) Det. Model Part#1=114690
# (c) Det. Model Part#2=131082
# (c) Det. Revision=1
# (c) Det. Preamp FPGA Version Major=15
# (c) Det. Preamp FPGA Version Minor=3
# (c) Det. Type=1
# (c)  Det. Default FS gain=2
# (c)  Det. Default SS gain=0
# (c) Det. Default Speed=6300[fringes/sec]
# (c) Det. Default Bias Current=0
# (c) Det. TEC Set Point Default=0[degree c]
# (c) Det. TEC Power Default=0
# (c) Det. TEC Servo SB1=0
# (c) Det. TEC Servo SB2=0
# (c) Det. TEC Servo SA1=0
# (c) Det. TEC Thermistor Ka=0
# (c) Det. TEC Thermistor Kb=0
# (c) Det. TECThermistor Kc=0
# (c) Det. Thermistor Rfb=0
# (c) Det. Thermistor Offset=0
# (c) Det. First Stage Gain1=1
# (c) Det. First Stage Gain2=3.00999999046326
# (c) Det. First Stage Gain3=9.0600004196167
# (c) Det. First Stage Gain4=27.1299991607666
# (c) Det. First Stage Gain5=80.6800003051758
# (c) Det. First Stage Gain6=237.839996337891
# (c) Det. First Stage Gain7=671.409973144531
# (c) Det. First Stage Gain8=3600
# (c) Det. Second Stage Gain1=1
# (c) Det. Second Stage Gain2=2.26999998092651
# (c) Det. Second Stage Gain3=6.01999998092651
# (c) Det. Second Stage Gain4=17.8999996185303
# (c) Det. ADC coupling=2
# (c) Inst. Serial ID Part#1=1282541
# (c) Inst. Serial ID Part#2=1
# (c) Inst. Model=MB3000
# (c) Inst. Revision=2
# (c) Interf. Serial ID Part#1=1282541
# (c) Interf. Serial ID Part#2=1
# (c) Interf. Model Part#1=81922
# (c) Interf. Model Part#2=131076
# (c) Interf. Revision=98
# (c) IR Source Serial ID Part#1=1282541
# (c) IR Source Serial ID Part#2=1
# (c) IR Source Model Part#1=2113538
# (c) IR Source Model Part#2=131073
# (c) IR Source Revision=1
# (c) IR Source Type=0
# (c) IR Source Factory Voltage=11.0900001525879[Volt]
# (c) IR Source Factory Current=1.56900000572205[amp]
# (c) VCSEL Factory Serial ID=116
# (c) VCSEL Type Configuration=1
# (c) VCSEL FPGA Version Major=15
# (c) VCSEL FPGA Version Minor=11
# (c) VCSEL TEC Temp Setpoint=35[degree C]
# (c) VCSEL TEC Startup Temp Conf=20[degree C]
# (c) VCSEL Temp Hysteresis=0.5[degree C]
# (c) VCSEL Laser Wavenumber=13121.8701171875[cm-1]
# (c) VCSEL Spectral Drift Correction=1.50974183270591E-05
# (c) VCSEL SNR LED criteria=0
# (c) Accessory USB Storage Path=/etc/tmpAccFile.gau
# (c) Absolute SpcCalibration Ajustement=-6.60810292174574E-06
# (c) Apodization Type Conf=1
# (c) Remove Average DC=1
# (c) Sampling Grid Wavenumber=15799.7001953125[cm-1]
# Validation ID=0
# Validation State=0
# Configuration Setup=MB3000_DTGS_openBeam
# USB connection Flag=0
# USB Accessory Type=0
# IR Source(HM)=1
# Hour of use nominal(HM)=1
# Current(HM)=0
# Voltage(HM)=0
# Electronic Temperature(HM)=0
# Metrology(HM)=2
# Laser Phase(HM)=0
# Amplitude of F signal(HM)=0
# Amplitude of D signal(HM)=0
# VCSEL Board Temperature(HM)=0
# VCSEL Voltage(HM)=0
# VCSEL Ref Voltage(HM)=0
# VCSEL Calib LED voltage(HM)=0
# VCSEL Diode temperature(HM)=0
# VCSEL Spc drift correction(HM)=0
# VCSEL Spectral drift C.T.(HM)=0
# VCSEL Calib LED SNR(HM)=2
# Electronic(HM)=0
# EBOX Temperature(HM)=0
# BMXS Board Temperature(HM)=0
# Detector(HM)=0
# Electronic Saturation(HM)=0
# Temperature(HM)=0
# Interferometer(HM)=0
# Co-addition(HM)=0
# NB Rejected scans Forward(HM)=0
# NB Rejected scans Reverse(HM)=0
# Firmware(HM)=0
# Version(HM)=0
# Comment=Transmission1
# ObjectID=ABF72D9E-4204-4B4A-8A43-5EE165238E1D
# Operator=Tatiana
# Department=Genie physique
